XY
Wavenumber     
Intensity      
"Start : "1219.22
"Stop  : "1477.06
S25424e.m3d

1477.06   0.3
1476.82   0.2
1476.57   0.175
1476.33   0.125
1476.08   0.1
1475.84   0.025
1475.59   0.175
1475.35   0.025
1475.1   0.1
1474.85   0.25
1474.61   -0.075
1474.37   0.45
1474.12   0.25
1473.88   0.1
1473.63   0.425
1473.39   0.025
1473.14   0.2
1472.9   0.125
1472.65   -0.05
1472.41   0.05
1472.16   0.2
1471.91   0.375
1471.67   0.6
1471.42   0.15
1471.18   0.15
1470.93   0.125
1470.69   0.275
1470.44   0.325
1470.2   0.15
1469.95   0.25
1469.71   0.275
1469.46   0.125
1469.21   0.25
1468.97   0.25
1468.73   0.375
1468.48   0.3
1468.24   0.275
1467.99   0.25
1467.74   0.475
1467.5   0.4
1467.25   0.2
1467.01   0.1
1466.76   0.25
1466.52   0.075
1466.27   0.1
1466.03   0.275
1465.78   0.5
1465.53   0.275
1465.29   0.475
1465.04   0.475
1464.8   0.6
1464.55   0.575
1464.31   0.15
1464.06   0.275
1463.82   0.425
1463.57   0.55
1463.32   0.6
1463.08   0.45
1462.83   0.65
1462.58   0.625
1462.34   1.375
1462.09   1.875
1461.85   3.55
1461.6   7.425
1461.36   12.65
1461.11   20.425
1460.86   28.975
1460.62   37.575
1460.37   44.975
1460.13   51.65
1459.88   56.275
1459.64   59.625
1459.39   62.5
1459.14   62.775
1458.9   63.05
1458.65   62.75
1458.41   63.4
1458.16   63.25
1457.92   63.425
1457.67   62.775
1457.42   62.825
1457.18   64
1456.93   63.475
1456.68   64.675
1456.44   64.55
1456.19   63
1455.95   64.475
1455.7   62.375
1455.45   63.475
1455.21   62.8
1454.96   62.6
1454.71   63.95
1454.47   62.925
1454.22   65.85
1453.98   63.625
1453.73   63.075
1453.49   63.65
1453.24   64.25
1452.99   63.35
1452.75   63.225
1452.5   63.95
1452.25   64.325
1452.01   64.45
1451.76   63.825
1451.51   62.975
1451.27   64.65
1451.02   62.975
1450.77   62.1
1450.53   64.025
1450.28   63.875
1450.04   62.65
1449.79   63.625
1449.54   63.35
1449.29   63.55
1449.05   63.675
1448.8   62.875
1448.56   63.625
1448.31   62.575
1448.06   62.8
1447.82   63.575
1447.57   61.425
1447.32   63.2
1447.08   63.175
1446.83   62.325
1446.58   62.975
1446.34   61.925
1446.09   62.35
1445.84   60.9
1445.6   62.55
1445.35   62.65
1445.1   62.975
1444.86   61.825
1444.61   61.275
1444.36   61.275
1444.12   62.55
1443.87   62.375
1443.62   61.7
1443.38   62.475
1443.13   61.95
1442.88   62.625
1442.63   63.15
1442.39   60.775
1442.14   62.9
1441.9   61.075
1441.65   61.6
1441.4   61.625
1441.15   61.475
1440.91   62
1440.66   62.15
1440.41   61.725
1440.17   62.05
1439.92   62.75
1439.67   60.925
1439.42   63.45
1439.18   61.975
1438.93   63
1438.68   62.275
1438.44   60.375
1438.19   61.15
1437.94   62.6
1437.7   62.225
1437.45   60.9
1437.2   62.05
1436.95   61.05
1436.71   61.05
1436.46   61.15
1436.21   60.875
1435.97   62.525
1435.72   60.775
1435.47   61.375
1435.22   61.225
1434.98   60.9
1434.73   60.825
1434.48   62.575
1434.23   62.875
1433.99   61.375
1433.74   62.375
1433.49   61.725
1433.25   61.525
1433   62.675
1432.75   62.375
1432.5   61.225
1432.25   62.125
1432.01   61.9
1431.76   62.175
1431.51   62.775
1431.27   63.15
1431.02   62.85
1430.77   62.075
1430.52   62.525
1430.28   60.75
1430.03   62.425
1429.78   61.75
1429.53   62.35
1429.29   60.65
1429.04   62.125
1428.79   62.325
1428.54   61.2
1428.29   62.225
1428.05   62.15
1427.8   62.35
1427.55   61.5
1427.3   61.65
1427.06   61.425
1426.81   61.35
1426.56   61.925
1426.31   62.45
1426.07   62.2
1425.82   60.95
1425.57   60.725
1425.32   60.875
1425.07   61.8
1424.83   60.775
1424.58   61.85
1424.33   61.1
1424.08   62.025
1423.83   62.1
1423.59   62.75
1423.34   61.05
1423.09   60.5
1422.84   63.1
1422.59   61.25
1422.35   61.575
1422.1   61.575
1421.85   62.05
1421.6   61.05
1421.36   62.3
1421.11   62.775
1420.86   61.9
1420.61   60.3
1420.36   60.65
1420.11   61.075
1419.87   61.225
1419.62   63.2
1419.37   61.625
1419.12   61.6
1418.87   61.375
1418.62   61.725
1418.38   60.225
1418.13   60.175
1417.88   61.1
1417.63   61.6
1417.38   62.175
1417.14   61.875
1416.89   62.3
1416.64   60.85
1416.39   63.225
1416.14   61.875
1415.89   62
1415.65   60.175
1415.4   61.025
1415.15   62.25
1414.9   59.725
1414.65   61.175
1414.4   60.25
1414.16   60.95
1413.91   61.8
1413.66   62.7
1413.41   61.4
1413.16   63.2
1412.91   61.875
1412.67   61.875
1412.42   62.075
1412.17   63.025
1411.92   62.4
1411.67   62.725
1411.42   61.675
1411.17   62.9
1410.92   60.525
1410.68   62.175
1410.43   62.325
1410.18   60.75
1409.93   62.875
1409.68   62.55
1409.43   63.1
1409.18   62.575
1408.94   62.75
1408.69   61.575
1408.44   64.025
1408.19   62
1407.94   62.1
1407.69   61.925
1407.44   61.9
1407.19   62.4
1406.95   61.125
1406.7   62.2
1406.45   62.925
1406.2   60.9
1405.95   62.775
1405.7   62.425
1405.45   62.225
1405.2   61.75
1404.95   62.775
1404.71   61.9
1404.46   62.325
1404.21   61.325
1403.96   61.35
1403.71   62.4
1403.46   61.35
1403.21   61.6
1402.96   62.05
1402.71   62.075
1402.46   62.3
1402.22   62.25
1401.97   60.975
1401.72   60.675
1401.47   61.125
1401.22   61.6
1400.97   62.275
1400.72   60.775
1400.47   61.675
1400.22   60.825
1399.97   61.675
1399.72   61.375
1399.47   61.325
1399.22   61.95
1398.98   60.85
1398.73   61.275
1398.48   62.15
1398.23   62.3
1397.98   60.8
1397.73   59.65
1397.48   61.6
1397.23   62.25
1396.98   62.375
1396.73   62.2
1396.48   61.525
1396.23   61.875
1395.98   61.775
1395.73   63.375
1395.49   60.425
1395.24   61.825
1394.98   60.775
1394.74   61.1
1394.49   60.1
1394.24   61.125
1393.99   61.6
1393.74   61.85
1393.49   61.5
1393.24   62.5
1392.99   62.725
1392.74   63.1
1392.49   62.025
1392.24   61.9
1391.99   62.05
1391.74   62.75
1391.49   63.275
1391.24   63.4
1390.99   62.525
1390.74   62.275
1390.49   62.2
1390.24   62.95
1389.99   62.325
1389.74   61.325
1389.49   62.375
1389.24   60.6
1388.99   60.925
1388.74   61.7
1388.49   60.325
1388.24   60.925
1387.99   61.6
1387.74   61.375
1387.49   61.875
1387.24   62.975
1386.99   62.7
1386.74   61.925
1386.49   62.875
1386.24   62.1
1385.99   62.5
1385.74   62.175
1385.5   63.25
1385.24   62.625
1384.99   61.875
1384.74   62.375
1384.49   62.7
1384.24   63.1
1383.99   62.475
1383.74   62.9
1383.49   61.525
1383.24   63.225
1382.99   63.3
1382.74   62.025
1382.49   63.575
1382.24   62.65
1381.99   63.35
1381.74   62.7
1381.49   62.1
1381.24   63.1
1380.99   62.675
1380.74   62.35
1380.49   63.275
1380.24   62.925
1379.99   62.025
1379.74   60.45
1379.49   62.5
1379.24   63.9
1378.99   63.125
1378.74   64.225
1378.49   63.525
1378.24   62.825
1377.99   62.3
1377.74   63.375
1377.49   63
1377.23   63.75
1376.99   63.55
1376.73   63.4
1376.48   62.975
1376.23   63.475
1375.98   62.225
1375.73   62.55
1375.48   63.6
1375.23   63.975
1374.98   62.925
1374.73   61.625
1374.48   63.75
1374.23   62.45
1373.98   63.275
1373.73   63.25
1373.48   62.975
1373.22   63.85
1372.98   63.3
1372.72   62.525
1372.47   62.725
1372.22   64.4
1371.97   62.975
1371.72   63.825
1371.47   61.7
1371.22   63.725
1370.97   64.45
1370.72   64.95
1370.47   63.725
1370.22   62.775
1369.96   62.8
1369.71   62.4
1369.46   62.875
1369.21   62.125
1368.96   63.725
1368.71   64.55
1368.46   62.8
1368.21   63.925
1367.96   63.7
1367.71   62.775
1367.46   63.7
1367.2   61.825
1366.95   63.725
1366.7   64.275
1366.45   64.775
1366.2   64
1365.95   63.375
1365.7   63.15
1365.45   64.975
1365.2   62.125
1364.94   63.125
1364.69   64.95
1364.44   62.55
1364.19   64.075
1363.94   64.5
1363.69   64.625
1363.44   63.85
1363.19   64.675
1362.93   63.4
1362.68   63.975
1362.43   63.275
1362.18   63.625
1361.93   62.55
1361.68   63.3
1361.43   62.8
1361.17   63.85
1360.92   63.1
1360.67   63.55
1360.42   63.375
1360.17   65.05
1359.92   62.75
1359.67   64.125
1359.41   63.225
1359.16   63.25
1358.91   62.925
1358.66   64.075
1358.41   63.65
1358.16   63.325
1357.91   61.9
1357.65   63.225
1357.4   62.575
1357.15   64.275
1356.9   64.45
1356.65   62.5
1356.4   64.35
1356.14   63.625
1355.89   64.05
1355.64   64.2
1355.39   64.725
1355.14   65.2
1354.89   65
1354.63   63.95
1354.38   64.375
1354.13   64.35
1353.88   64.65
1353.63   65.75
1353.38   65
1353.12   65.5
1352.87   66.4
1352.62   64.575
1352.37   64.65
1352.12   65.3
1351.86   66.05
1351.61   66.4
1351.36   64.275
1351.11   64.175
1350.86   63.35
1350.6   65.775
1350.35   64.725
1350.1   64.325
1349.85   64.9
1349.6   65.975
1349.34   67.175
1349.09   64.175
1348.84   65.625
1348.59   66.3
1348.34   65.875
1348.08   65.075
1347.83   65.45
1347.58   66.25
1347.33   66.45
1347.08   66.65
1346.82   66.05
1346.57   66.225
1346.32   65.45
1346.07   66.825
1345.81   66.025
1345.56   66.375
1345.31   65.55
1345.06   67.9
1344.81   66.15
1344.55   66.6
1344.3   66.125
1344.05   66.95
1343.8   66.425
1343.54   66.4
1343.29   65.825
1343.04   66.125
1342.79   65.9
1342.53   66.35
1342.28   67.175
1342.03   64.275
1341.78   65.25
1341.52   66.8
1341.27   65.8
1341.02   66.95
1340.77   65.575
1340.51   66.25
1340.26   66.25
1340.01   65.2
1339.76   67.15
1339.5   68.25
1339.25   65.4
1339   67.775
1338.75   66.325
1338.49   66.3
1338.24   66.475
1337.99   67.15
1337.73   65.375
1337.48   67.5
1337.23   68.55
1336.98   66.325
1336.72   66.475
1336.47   67.725
1336.22   65.625
1335.97   66.35
1335.71   67.375
1335.46   66.375
1335.21   68.35
1334.96   66.625
1334.7   67.05
1334.45   67.875
1334.2   66.975
1333.94   66.875
1333.69   67.875
1333.44   69.375
1333.18   67.675
1332.93   67.55
1332.68   68.1
1332.43   67.175
1332.17   68.925
1331.92   67.275
1331.67   67.475
1331.41   67.75
1331.16   67.475
1330.91   66.7
1330.65   67.425
1330.4   68.55
1330.15   67.025
1329.9   67.725
1329.64   67.2
1329.39   67.575
1329.14   68.05
1328.88   69.125
1328.63   68.475
1328.38   67.65
1328.12   68.825
1327.87   68.1
1327.62   66.95
1327.36   69.8
1327.11   67.85
1326.86   69.4
1326.6   69.5
1326.35   68.225
1326.1   68.6
1325.84   68.9
1325.59   69.45
1325.34   69.675
1325.08   69.225
1324.83   69.375
1324.58   69.325
1324.32   69.425
1324.07   69.325
1323.82   70
1323.56   68.85
1323.31   69.925
1323.05   70.975
1322.8   70.55
1322.55   69.2
1322.29   70
1322.04   68.85
1321.79   68.9
1321.53   69.225
1321.28   70.4
1321.03   69.9
1320.77   70.5
1320.52   70.025
1320.27   70.3
1320.01   70.55
1319.76   70.6
1319.51   70.4
1319.25   69.55
1319   69.025
1318.74   70.9
1318.49   69.825
1318.24   69.975
1317.98   70.6
1317.73   71.275
1317.48   70.65
1317.22   69.475
1316.97   73.1
1316.71   70.775
1316.46   70.875
1316.21   71.575
1315.95   70.95
1315.7   70.075
1315.44   71.325
1315.19   70.6
1314.94   72.3
1314.68   71.425
1314.43   72.05
1314.17   73.875
1313.92   72
1313.67   71.975
1313.41   74
1313.16   72.65
1312.9   71
1312.65   74.975
1312.4   72.85
1312.14   72.925
1311.89   71.675
1311.63   72.45
1311.38   74.575
1311.12   76.65
1310.87   73.175
1310.62   73.625
1310.36   71.7
1310.11   75.075
1309.85   75.05
1309.6   75.35
1309.35   77.925
1309.09   77.95
1308.84   77
1308.58   76.725
1308.33   78.325
1308.07   77.825
1307.82   79.9
1307.56   78.5
1307.31   80.1
1307.06   79.925
1306.8   80.4
1306.55   81.025
1306.29   80.675
1306.04   81.4
1305.78   82.35
1305.53   81.425
1305.28   83.475
1305.02   83.475
1304.77   84.325
1304.51   84.8
1304.26   84.45
1304   82.85
1303.75   83.875
1303.49   82.9
1303.24   84.125
1302.98   84.1
1302.73   84.5
1302.47   84.675
1302.22   84.525
1301.97   84.65
1301.71   86.15
1301.46   83
1301.2   83.6
1300.95   83.775
1300.69   83.8
1300.44   82.65
1300.18   84.3
1299.93   83.275
1299.67   83.9
1299.42   84.225
1299.16   82.3
1298.91   82.45
1298.65   83.05
1298.4   85.65
1298.14   83.7
1297.89   82.65
1297.63   82.875
1297.38   83.325
1297.13   83.4
1296.87   83
1296.61   82.65
1296.36   83.4
1296.1   83.4
1295.85   83.025
1295.59   83.275
1295.34   83.95
1295.08   82
1294.83   83.05
1294.57   80.275
1294.32   80.875
1294.06   80.675
1293.81   80.525
1293.55   79.025
1293.3   77.875
1293.04   76.675
1292.79   77.75
1292.53   76.55
1292.28   76.675
1292.02   76.25
1291.77   76
1291.51   77.475
1291.26   76.7
1291   75.175
1290.75   74.875
1290.49   73.775
1290.23   75.85
1289.98   72.675
1289.73   72.9
1289.47   74.375
1289.21   73.925
1288.96   72.475
1288.7   73.35
1288.45   72.5
1288.19   72.775
1287.94   71.95
1287.68   73.2
1287.43   71.425
1287.17   71.3
1286.91   70.275
1286.66   71.15
1286.4   71.7
1286.15   70.675
1285.89   70.025
1285.64   73.075
1285.38   69.825
1285.13   70.025
1284.87   68.525
1284.61   70.2
1284.36   70.7
1284.1   68.375
1283.85   69.95
1283.59   69.225
1283.34   70.2
1283.08   68.875
1282.82   67.9
1282.57   68.95
1282.31   69.05
1282.06   69.35
1281.8   67.975
1281.55   70.05
1281.29   69.5
1281.04   67.675
1280.78   68.675
1280.52   69.275
1280.27   67.575
1280.01   68.2
1279.75   68.675
1279.5   68.8
1279.24   69.125
1278.99   68.425
1278.73   68.225
1278.48   67.175
1278.22   67.825
1277.96   69.175
1277.71   66.65
1277.45   66.675
1277.19   67.9
1276.94   66.275
1276.68   66.675
1276.43   66.8
1276.17   66.85
1275.92   66.55
1275.66   67.1
1275.4   65.325
1275.15   65.825
1274.89   68.05
1274.63   64.975
1274.38   66.6
1274.12   66.5
1273.87   65.9
1273.61   66.175
1273.35   65.95
1273.1   66.575
1272.84   65.3
1272.58   66.9
1272.33   67.4
1272.07   68.55
1271.81   66.125
1271.56   66.125
1271.3   66.35
1271.04   66.625
1270.79   65.675
1270.53   66.2
1270.28   64.725
1270.02   64.05
1269.76   66.225
1269.51   65.35
1269.25   65.475
1268.99   63.625
1268.74   65.9
1268.48   63.25
1268.22   66.025
1267.97   65.075
1267.71   65.675
1267.45   66.65
1267.2   67.975
1266.94   66.75
1266.68   65.3
1266.43   68.175
1266.17   66.975
1265.91   66.65
1265.66   67.6
1265.4   66.35
1265.14   66.6
1264.89   66.275
1264.63   67.25
1264.37   65.175
1264.12   67.475
1263.86   67.65
1263.6   68.975
1263.35   65.475
1263.09   67.825
1262.83   67.475
1262.58   65.8
1262.32   67.35
1262.06   67.525
1261.81   64.6
1261.55   66.075
1261.29   67.125
1261.03   66.15
1260.78   66.95
1260.52   66.475
1260.26   66.825
1260.01   67.075
1259.75   65.025
1259.49   65.5
1259.23   66.875
1258.98   65.475
1258.72   67.425
1258.46   64.9
1258.21   65.775
1257.95   67.025
1257.69   67.175
1257.44   65.75
1257.18   65.55
1256.92   68.325
1256.66   67.875
1256.41   67.425
1256.15   68.525
1255.89   67.4
1255.63   67.425
1255.38   65.15
1255.12   66.6
1254.86   65.975
1254.61   66.3
1254.35   66.6
1254.09   67.875
1253.83   67.475
1253.58   65.825
1253.32   65.85
1253.06   65.2
1252.81   65.925
1252.55   66.175
1252.29   65.1
1252.03   68.875
1251.77   66.85
1251.52   67.825
1251.26   66.4
1251   68.275
1250.75   66.275
1250.49   66.35
1250.23   66.75
1249.97   66.55
1249.72   67.25
1249.46   67.825
1249.2   67.275
1248.94   66.15
1248.68   66.925
1248.42   67.3
1248.17   66.9
1247.91   66.125
1247.65   65.325
1247.4   66.775
1247.14   66.35
1246.88   66.65
1246.62   66.075
1246.37   66.475
1246.11   65.825
1245.85   66.45
1245.59   65.575
1245.33   64.7
1245.08   65.7
1244.82   65.45
1244.56   66.075
1244.3   67.575
1244.04   65.35
1243.79   64.5
1243.53   65.3
1243.27   66.775
1243.01   65.775
1242.75   66
1242.5   65.95
1242.24   67.425
1241.98   65.225
1241.72   64.5
1241.46   65.45
1241.21   64.675
1240.95   66.625
1240.69   65.45
1240.43   63.275
1240.17   65.725
1239.92   65.5
1239.66   65.1
1239.4   66
1239.14   66.175
1238.88   65.15
1238.62   65.375
1238.37   64.95
1238.11   66.15
1237.85   63.875
1237.59   64.65
1237.33   65.975
1237.08   63.9
1236.82   64.8
1236.56   64.45
1236.3   65.7
1236.04   64.5
1235.78   65.325
1235.52   62.675
1235.27   65.4
1235.01   65.45
1234.75   64.35
1234.49   63.575
1234.23   65.3
1233.98   64.65
1233.71   65.275
1233.46   65.325
1233.2   64.85
1232.94   63.325
1232.68   64.25
1232.42   65.35
1232.17   63.85
1231.91   65.4
1231.65   64.9
1231.39   64.525
1231.13   65.875
1230.87   64.5
1230.61   63.675
1230.36   63.425
1230.09   65.175
1229.84   63.75
1229.58   62.675
1229.32   65.225
1229.06   64.4
1228.8   64.1
1228.54   64.1
1228.28   64.6
1228.02   64.975
1227.77   64.125
1227.51   62.575
1227.25   64.225
1226.99   64.825
1226.73   64.5
1226.47   61.95
1226.21   63.325
1225.96   63.75
1225.7   64.2
1225.44   61.825
1225.18   60.7
1224.92   58.45
1224.66   53.775
1224.4   47.65
1224.14   39.3
1223.88   30.6
1223.62   22.825
1223.37   16.6
1223.11   11.275
1222.85   7.875
1222.59   5.775
1222.33   3.825
1222.07   3.025
1221.81   2.275
1221.55   2.225
1221.29   1.425
1221.03   1.975
1220.77   1.55
1220.51   1.275
1220.25   1.525
1220   0.45
1219.74   1.45
1219.48   1.175
1219.22   1.175
