XY
Wavenumber     
Intensity      
"Start : "1423.93
"Stop  : "1672.31
S25424c.m3d

1672.31   0.35
1672.08   0.35
1671.84   0.875
1671.61   1.075
1671.37   0.625
1671.13   0.575
1670.9   0.7
1670.66   0.225
1670.43   0.375
1670.19   0.475
1669.95   0.375
1669.72   0.725
1669.48   0.7
1669.24   0.2
1669.01   0.45
1668.77   0.25
1668.54   0.575
1668.3   0.575
1668.06   0.225
1667.83   0.6
1667.59   0.625
1667.35   0.5
1667.12   0.75
1666.88   0.625
1666.65   0.425
1666.41   0.875
1666.17   0.575
1665.94   0.475
1665.7   0.9
1665.46   1.025
1665.23   0.775
1664.99   0.575
1664.76   0.925
1664.52   0.825
1664.28   0.7
1664.04   0.525
1663.81   0.55
1663.57   0.525
1663.34   0.575
1663.1   0.625
1662.86   0.85
1662.63   0.9
1662.39   1.1
1662.15   0.775
1661.92   0.625
1661.68   0.575
1661.44   0.95
1661.21   0.8
1660.97   0.95
1660.73   0.575
1660.5   0.75
1660.26   0.975
1660.02   0.85
1659.79   0.575
1659.55   0.75
1659.31   0.675
1659.08   1.05
1658.84   1.05
1658.6   1.075
1658.37   1.1
1658.13   1.425
1657.89   1.6
1657.66   1.6
1657.42   1.675
1657.18   2.35
1656.95   5.075
1656.71   9.85
1656.47   18.4
1656.24   28.675
1656   39.75
1655.76   54.2
1655.53   66
1655.29   78.375
1655.05   85.7
1654.81   89.225
1654.58   94.1
1654.34   96.475
1654.1   95.975
1653.87   96.7
1653.63   96.2
1653.39   97.15
1653.15   96.9
1652.92   97.45
1652.68   97.175
1652.44   97.875
1652.21   98.175
1651.97   98.5
1651.73   95.15
1651.5   98.875
1651.26   97.5
1651.02   95.775
1650.78   96.1
1650.55   94.675
1650.31   95.45
1650.07   94.575
1649.83   96.65
1649.6   94.875
1649.36   93.375
1649.12   93.475
1648.89   92.95
1648.65   94.3
1648.41   95.375
1648.17   92.425
1647.94   92.375
1647.7   91.35
1647.46   92.4
1647.23   92.475
1646.99   91.525
1646.75   92.925
1646.51   91.475
1646.27   90.925
1646.04   90.375
1645.8   92.1
1645.56   94.025
1645.33   91.875
1645.09   91.15
1644.85   92.925
1644.61   89.175
1644.38   92.05
1644.14   92.475
1643.9   90.625
1643.66   89.6
1643.43   91.525
1643.19   89.7
1642.95   89.425
1642.71   91.65
1642.47   91.575
1642.24   90.1
1642   89.75
1641.76   90.275
1641.52   91.025
1641.29   92.575
1641.05   89.925
1640.81   90.325
1640.57   89.95
1640.33   89.15
1640.1   89.475
1639.86   90.75
1639.62   89.4
1639.38   90.975
1639.15   93.075
1638.91   90.575
1638.67   92.2
1638.43   92.85
1638.2   92.575
1637.96   92.825
1637.72   91.75
1637.48   93.375
1637.24   91.45
1637   93.05
1636.77   91.625
1636.53   93.15
1636.29   91.425
1636.05   92.375
1635.82   92.225
1635.58   91.775
1635.34   93.85
1635.1   93.15
1634.86   92.475
1634.63   93.825
1634.39   93.925
1634.15   94.525
1633.91   94.85
1633.67   92.175
1633.44   94.1
1633.2   96.425
1632.96   95.1
1632.72   93.55
1632.48   94.5
1632.24   94.7
1632   95.9
1631.77   95.75
1631.53   93.8
1631.29   95.425
1631.05   96.575
1630.81   95.575
1630.58   97.375
1630.34   97.075
1630.1   94.9
1629.86   97.125
1629.62   96.5
1629.39   97.725
1629.15   96.425
1628.91   99.2
1628.67   97.725
1628.43   96.75
1628.19   97.85
1627.95   99.7
1627.72   100.3
1627.48   100.625
1627.24   97.85
1627   98.5
1626.76   98.3
1626.52   100.225
1626.28   99.475
1626.05   100.175
1625.81   101.325
1625.57   101.375
1625.33   101.925
1625.09   102.925
1624.85   102.375
1624.61   101.725
1624.38   101.875
1624.14   103.65
1623.9   103.925
1623.66   102.95
1623.42   104.9
1623.18   102.275
1622.94   104.35
1622.71   103.675
1622.47   103.825
1622.23   107.4
1621.99   105.525
1621.75   108.15
1621.51   107.875
1621.27   107.925
1621.03   106.55
1620.79   107.625
1620.55   107.725
1620.32   107.9
1620.08   108.525
1619.84   111.475
1619.6   109.325
1619.36   111.05
1619.12   110.625
1618.88   112.425
1618.64   112.225
1618.41   113.225
1618.17   113.25
1617.93   112.875
1617.69   114.9
1617.45   114.05
1617.21   113.825
1616.97   117.225
1616.73   117.475
1616.49   118.425
1616.25   117.175
1616.02   119.45
1615.78   118.975
1615.54   119.35
1615.3   120
1615.06   121.65
1614.82   122.45
1614.58   122.725
1614.34   124.025
1614.1   125.4
1613.86   123.075
1613.62   124.975
1613.38   125.825
1613.14   124.5
1612.9   125.2
1612.67   130.425
1612.43   128.5
1612.19   129
1611.95   131.75
1611.71   130.025
1611.47   134
1611.23   134.525
1610.99   135.075
1610.75   135.625
1610.51   139.4
1610.27   140.375
1610.03   138.475
1609.79   140.75
1609.55   143.575
1609.32   143.525
1609.08   147.25
1608.84   145.725
1608.6   150.2
1608.36   150.75
1608.12   153.35
1607.88   153.4
1607.64   154.425
1607.4   155.3
1607.16   158.6
1606.92   159.1
1606.68   161.75
1606.44   164
1606.2   164.75
1605.96   168.025
1605.72   168.075
1605.48   170.325
1605.24   174.825
1605   176.3
1604.76   176.575
1604.52   181.5
1604.28   183.95
1604.04   187.275
1603.8   188.25
1603.56   192
1603.32   194.025
1603.08   197.075
1602.85   205.75
1602.6   202.375
1602.36   209.5
1602.12   213.275
1601.88   214.35
1601.64   221.025
1601.41   227.275
1601.17   229.775
1600.92   237.175
1600.69   244.975
1600.45   245.475
1600.21   253.6
1599.96   258.675
1599.72   264.075
1599.48   273.875
1599.25   280.05
1599.01   287.025
1598.76   295.125
1598.53   304.075
1598.29   307.5
1598.04   316.125
1597.8   326.575
1597.56   341.45
1597.32   351.575
1597.08   360.575
1596.84   378.975
1596.6   394.375
1596.36   407.25
1596.12   424.875
1595.88   445.875
1595.64   463.25
1595.4   493.05
1595.16   505.425
1594.92   533.7
1594.68   560.575
1594.44   591.65
1594.2   617.775
1593.96   648.575
1593.72   695.85
1593.48   729.275
1593.24   775.125
1593   832.525
1592.76   878.3
1592.52   944.775
1592.28   1000.58
1592.04   1062.05
1591.8   1121.95
1591.56   1192.62
1591.32   1247.15
1591.08   1315.57
1590.83   1370.5
1590.6   1422.45
1590.35   1461.55
1590.11   1501
1589.87   1526.53
1589.63   1551.2
1589.39   1561.15
1589.15   1550.55
1588.91   1528.62
1588.67   1517.55
1588.43   1482.55
1588.19   1438.4
1587.95   1391.12
1587.71   1343.88
1587.47   1297.68
1587.23   1242.45
1586.99   1176.93
1586.75   1130.57
1586.5   1074.77
1586.26   1022.15
1586.02   990.025
1585.78   933.7
1585.54   891.075
1585.3   844.925
1585.06   810.75
1584.82   773.45
1584.58   733.25
1584.34   701.975
1584.1   661.725
1583.86   639.1
1583.62   605.175
1583.37   578.225
1583.13   557.35
1582.89   531.95
1582.65   506.325
1582.41   485.55
1582.17   467.675
1581.93   447.725
1581.69   428.725
1581.45   413.225
1581.21   398.375
1580.96   391.85
1580.72   366.75
1580.48   361.55
1580.24   347.325
1580   336.15
1579.76   326.325
1579.52   317.2
1579.28   310.725
1579.04   299.525
1578.79   294.15
1578.55   286
1578.31   282.625
1578.07   272.625
1577.83   270.9
1577.59   260.775
1577.35   255.625
1577.11   248.55
1576.86   244.35
1576.62   237.4
1576.38   233.35
1576.14   228.425
1575.9   224.25
1575.66   217.975
1575.42   213.075
1575.17   211.925
1574.93   206.35
1574.69   200.95
1574.45   198.325
1574.21   195.75
1573.97   192.375
1573.73   188.75
1573.49   187.675
1573.24   180.525
1573   177.575
1572.76   176.325
1572.52   176.5
1572.28   175.325
1572.04   168.925
1571.79   168.85
1571.55   167.875
1571.31   163.95
1571.07   164.525
1570.83   161.675
1570.59   160.775
1570.35   156.7
1570.1   159.075
1569.86   155.925
1569.62   156.05
1569.38   153.95
1569.14   151.65
1568.89   148.4
1568.65   149.425
1568.41   149.75
1568.17   147.8
1567.93   146.85
1567.69   145.375
1567.45   142.275
1567.2   145.175
1566.96   141.55
1566.72   142.325
1566.48   139.15
1566.24   136.9
1565.99   138.275
1565.75   137.975
1565.51   137.8
1565.27   136.475
1565.03   135.825
1564.78   135.975
1564.54   132.65
1564.3   134
1564.06   134.55
1563.82   133.35
1563.57   134.675
1563.33   132.9
1563.09   131.75
1562.85   132.35
1562.61   132.6
1562.36   131.6
1562.12   130.25
1561.88   132.05
1561.64   129.625
1561.4   129.875
1561.15   132.725
1560.91   132.275
1560.67   132.75
1560.43   131.85
1560.19   132.025
1559.94   132
1559.7   131.25
1559.46   131.3
1559.22   129.8
1558.97   131.15
1558.73   131.1
1558.49   131.575
1558.25   130.125
1558   130
1557.76   129.95
1557.52   131.3
1557.28   133.5
1557.04   133.45
1556.79   132.45
1556.55   131.325
1556.31   133.475
1556.06   134.9
1555.82   134.45
1555.58   134.05
1555.34   133.9
1555.1   135.95
1554.85   135.125
1554.61   135.075
1554.37   133.875
1554.13   134.65
1553.88   133.775
1553.64   133.475
1553.4   134.1
1553.16   136.275
1552.91   136.925
1552.67   135.15
1552.43   138.875
1552.18   137.925
1551.94   138.075
1551.7   135.875
1551.46   139.475
1551.21   139.175
1550.97   139.175
1550.73   142.4
1550.49   141.3
1550.24   142.2
1550   142.925
1549.76   146.375
1549.51   143.2
1549.27   145.3
1549.03   143.95
1548.79   147.125
1548.54   143.8
1548.3   145.625
1548.06   141.25
1547.81   142.025
1547.57   139.15
1547.33   140.275
1547.09   138.325
1546.84   136.425
1546.6   136.575
1546.36   133.7
1546.12   133.525
1545.87   130.725
1545.63   131.275
1545.39   132.525
1545.14   132.575
1544.9   131.55
1544.66   133.15
1544.41   134.5
1544.17   133.7
1543.93   135.925
1543.68   136.825
1543.44   139.925
1543.2   141.325
1542.96   143.25
1542.71   147.025
1542.47   149.6
1542.23   156.875
1541.98   156.25
1541.74   163.875
1541.5   163.85
1541.25   166.05
1541.01   168.5
1540.77   169.475
1540.52   169.45
1540.28   165.225
1540.04   161.875
1539.79   163.025
1539.55   159.475
1539.31   156.425
1539.06   152.7
1538.82   149.2
1538.58   145.7
1538.33   140.325
1538.09   135.1
1537.85   133.125
1537.6   130.425
1537.36   128.325
1537.12   124.475
1536.87   119.875
1536.63   120.85
1536.38   117.6
1536.14   115.675
1535.9   115.075
1535.65   115.9
1535.41   111.625
1535.17   112.05
1534.92   110
1534.68   109.025
1534.44   107.425
1534.19   105.5
1533.95   104.2
1533.71   105.175
1533.46   102.7
1533.22   101.225
1532.97   104.775
1532.73   101.8
1532.49   102.1
1532.24   102.2
1532   101.35
1531.76   100.2
1531.51   101.025
1531.27   99.125
1531.02   102.075
1530.78   98.975
1530.54   99.75
1530.29   99.55
1530.05   98.35
1529.8   99
1529.56   99.2
1529.32   97.925
1529.07   98.1
1528.83   97.8
1528.59   97.475
1528.34   97.025
1528.1   97.475
1527.85   95.4
1527.61   96.125
1527.37   97.275
1527.12   94.6
1526.88   96.475
1526.63   98.3
1526.39   96.35
1526.15   95.625
1525.9   95.7
1525.66   96
1525.41   95.95
1525.17   95.85
1524.92   93.725
1524.68   93.05
1524.44   94.7
1524.19   94.975
1523.95   95.375
1523.7   93.675
1523.46   93.75
1523.22   92.95
1522.97   94.225
1522.73   91.675
1522.48   94.525
1522.24   91.25
1521.99   92.6
1521.75   92.8
1521.5   91.65
1521.26   92.05
1521.02   90.875
1520.77   90.175
1520.53   89.35
1520.28   92.025
1520.04   89.375
1519.79   88.55
1519.55   89.275
1519.31   89.875
1519.06   90.125
1518.82   89.025
1518.57   92.525
1518.33   88.175
1518.08   87.5
1517.84   88.925
1517.59   89.025
1517.35   88.975
1517.1   89.075
1516.86   88.75
1516.62   87.825
1516.37   86.95
1516.13   87.9
1515.88   89.5
1515.64   89.1
1515.39   87.5
1515.15   87.4
1514.9   87.45
1514.66   86.6
1514.41   88.4
1514.17   85.275
1513.92   84.775
1513.68   87.725
1513.43   85.125
1513.19   86.45
1512.95   87.975
1512.7   84.95
1512.46   87.125
1512.21   85.8
1511.97   85.9
1511.72   84.275
1511.48   83.4
1511.23   88.425
1510.99   87.6
1510.74   84.8
1510.5   85.875
1510.25   83.925
1510.01   86.675
1509.76   86.55
1509.52   85.525
1509.27   85.975
1509.03   86.4
1508.78   84.575
1508.54   86.3
1508.29   86.025
1508.05   84.825
1507.8   86.2
1507.56   86.15
1507.31   86.15
1507.07   85.25
1506.82   85.2
1506.57   84.8
1506.33   85.9
1506.08   84.5
1505.84   85.975
1505.59   84.275
1505.35   84.075
1505.1   85.5
1504.86   84.75
1504.61   85.45
1504.37   83.425
1504.12   84.525
1503.88   85.45
1503.63   83.825
1503.39   83.8
1503.14   85.075
1502.9   84.1
1502.65   84.95
1502.41   84.575
1502.16   84.95
1501.92   84.625
1501.67   83.725
1501.42   84.875
1501.18   86.05
1500.93   82.75
1500.69   85.55
1500.44   83.55
1500.2   85.7
1499.95   83.625
1499.71   83.075
1499.46   84.575
1499.21   83.625
1498.97   85.35
1498.72   83.325
1498.48   83.65
1498.23   83.8
1497.99   83.95
1497.74   84.975
1497.5   83.95
1497.25   82.45
1497   83.75
1496.76   84.475
1496.51   84.225
1496.27   84.425
1496.02   83.2
1495.78   83.575
1495.53   84.3
1495.28   83.775
1495.04   83.2
1494.79   81.875
1494.55   82.8
1494.3   83.55
1494.05   83.375
1493.81   80.5
1493.56   84.475
1493.32   83.625
1493.07   83.05
1492.83   85.375
1492.58   84.15
1492.33   83.775
1492.09   81.625
1491.84   82.45
1491.6   83.675
1491.35   83.625
1491.1   83.075
1490.86   84.475
1490.61   83.375
1490.37   84.325
1490.12   84.125
1489.87   82.75
1489.63   82.95
1489.38   84.875
1489.14   83.375
1488.89   82.425
1488.64   83.6
1488.4   81.425
1488.15   84.6
1487.91   84.325
1487.66   82.875
1487.41   82.3
1487.17   81.925
1486.92   82.5
1486.67   81.025
1486.43   82.925
1486.18   81.525
1485.93   82.55
1485.69   82.2
1485.44   83.175
1485.19   80.95
1484.95   82.175
1484.7   81.975
1484.46   81.75
1484.21   81.95
1483.96   82.975
1483.72   82.925
1483.47   83.3
1483.22   81.975
1482.98   82.45
1482.73   81.425
1482.48   82.125
1482.24   80.475
1481.99   82.625
1481.75   83.2
1481.5   81.775
1481.25   82.25
1481.01   80.8
1480.76   79.175
1480.51   82.625
1480.26   82.85
1480.02   80.425
1479.77   81.35
1479.52   81.7
1479.28   81.85
1479.03   81.075
1478.79   81.625
1478.54   81.225
1478.29   82.15
1478.04   80.825
1477.8   81.45
1477.55   83.3
1477.31   80.75
1477.06   80.375
1476.81   80.175
1476.57   83.25
1476.32   81.2
1476.07   81.45
1475.82   82.55
1475.58   81.45
1475.33   80.625
1475.08   81.225
1474.84   80.225
1474.59   77.95
1474.34   81.025
1474.1   81.725
1473.85   80.8
1473.6   80.75
1473.36   79.775
1473.11   79.775
1472.86   78.575
1472.61   78.625
1472.37   79.725
1472.12   77.075
1471.87   78.6
1471.63   78.375
1471.38   78.35
1471.13   79.725
1470.88   80.325
1470.64   80.2
1470.39   80.2
1470.14   80.725
1469.9   82.075
1469.65   80.875
1469.4   80.925
1469.15   82.475
1468.91   80.25
1468.66   81.125
1468.41   80.55
1468.16   79.8
1467.92   80.8
1467.67   81.8
1467.42   80.6
1467.18   81.85
1466.93   84.05
1466.68   82.725
1466.43   82.2
1466.19   82.375
1465.94   83.25
1465.69   80.225
1465.44   82.05
1465.2   82.3
1464.95   83.675
1464.7   81.45
1464.45   82.925
1464.21   82.175
1463.96   82.05
1463.71   81.05
1463.46   84.85
1463.22   81
1462.97   82.05
1462.72   82.325
1462.47   81.4
1462.23   83.225
1461.98   82.3
1461.73   82.05
1461.48   82
1461.24   81.975
1460.99   82.225
1460.74   81.05
1460.49   83.45
1460.25   81.9
1460   80.575
1459.75   81.825
1459.5   83.5
1459.25   82.9
1459   83.2
1458.76   82.3
1458.51   83.175
1458.26   82.625
1458.01   82.4
1457.77   81.625
1457.52   81.25
1457.27   81.2
1457.02   81.9
1456.78   81.9
1456.53   84.175
1456.28   82.725
1456.03   83.025
1455.78   83.9
1455.53   84
1455.29   83.95
1455.04   81.875
1454.79   83.3
1454.54   82.325
1454.29   82.75
1454.05   82.475
1453.8   81.85
1453.55   85.25
1453.3   83.275
1453.06   83.7
1452.81   83.2
1452.56   82.6
1452.31   82.175
1452.06   83.925
1451.81   81.35
1451.57   81.725
1451.32   81.175
1451.07   81.725
1450.82   82.975
1450.57   81.625
1450.32   82.4
1450.08   81.775
1449.83   80.3
1449.58   81.525
1449.33   81.2
1449.08   79.775
1448.83   79.45
1448.59   80.025
1448.34   79.6
1448.09   79.925
1447.84   82.05
1447.59   79.525
1447.34   80.025
1447.09   80.15
1446.85   79.775
1446.6   80.375
1446.35   80.075
1446.1   78.775
1445.85   80.375
1445.6   80.75
1445.36   79.4
1445.11   80.125
1444.86   79.9
1444.61   78.8
1444.36   79.35
1444.11   79.225
1443.87   78.65
1443.62   80.175
1443.37   79.5
1443.12   79.125
1442.87   78.4
1442.62   76.775
1442.37   79.075
1442.12   77.525
1441.88   79.85
1441.62   78.5
1441.38   79.5
1441.13   78.85
1440.88   78.675
1440.63   78.825
1440.38   78.125
1440.13   77.625
1439.88   79.7
1439.63   80.5
1439.39   77.55
1439.14   78.2
1438.89   78.8
1438.64   77.45
1438.39   77.475
1438.14   77.875
1437.89   79.025
1437.64   78.75
1437.39   77.9
1437.15   80.325
1436.9   78.025
1436.65   79.525
1436.4   78.175
1436.15   77.975
1435.9   76.425
1435.65   78.15
1435.4   77.925
1435.15   77.25
1434.9   78.55
1434.66   77.6
1434.41   77.825
1434.16   77.9
1433.91   77.4
1433.66   79.575
1433.41   79.075
1433.16   77.575
1432.91   75.875
1432.66   78.275
1432.41   79.1
1432.16   77.775
1431.92   76.3
1431.67   76.575
1431.41   77.525
1431.17   75.85
1430.92   76.125
1430.67   75.75
1430.42   75.55
1430.17   76.85
1429.92   76.425
1429.67   73.5
1429.42   69.9
1429.17   63.2
1428.92   54.575
1428.67   43.075
1428.42   33.425
1428.17   24.45
1427.92   17
1427.67   11.125
1427.42   7.85
1427.17   5.875
1426.92   4.125
1426.68   3.6
1426.43   2.625
1426.18   2.675
1425.93   2.625
1425.68   2.225
1425.43   2.175
1425.18   1.525
1424.93   1.625
1424.68   1.85
1424.43   1.775
1424.18   1.925
1423.93   1.925
