XY
Wavenumber     
Intensity      
"Start : "194.194
"Stop  : "501.003
S25424a.m3d

501.003   0.325
500.711   0.375
500.421   0.225
500.13   0.5
499.838   0.575
499.545   0.4
499.255   0.45
498.964   0.6
498.674   0.825
498.382   0.45
498.09   0.5
497.798   0.425
497.508   0.55
497.216   0.4
496.924   0.4
496.633   0.35
496.342   0.475
496.05   0.75
495.758   0.325
495.468   0.425
495.176   0.55
494.884   0.725
494.592   0.225
494.301   0.65
494.01   1.15
493.719   0.425
493.425   0.75
493.135   0.6
492.844   0.6
492.551   0.625
492.259   0.65
491.968   0.775
491.677   0.475
491.384   0.55
491.092   0.6
490.801   0.7
490.509   0.6
490.216   0.85
489.925   0.7
489.634   0.75
489.343   0.625
489.049   0.75
488.758   0.925
488.467   0.65
488.173   0.8
487.882   0.8
487.591   0.925
487.299   1.4
487.006   1.625
486.714   3.025
486.422   5.925
486.129   11.275
485.838   18.125
485.547   26.025
485.254   35.9
484.961   46.9
484.67   53.075
484.378   61.25
484.085   65.325
483.794   67.2
483.501   71
483.208   69.975
482.917   72.55
482.624   70.95
482.331   70.725
482.04   72.2
481.747   72.525
481.456   72.4
481.163   72.4
480.87   73.575
480.578   71.5
480.286   71.7
479.993   74.35
479.7   72.9
479.409   74.625
479.116   73.6
478.823   76.175
478.531   75.55
478.237   73.85
477.945   74.825
477.653   73.65
477.36   76.925
477.068   73.8
476.776   74.95
476.484   76.175
476.191   75.65
475.898   75.4
475.604   75.275
475.312   75.725
475.02   76.05
474.727   75.575
474.436   77.2
474.142   78.175
473.849   77.55
473.556   76.675
473.263   77.5
472.972   77.725
472.679   78.325
472.385   78.05
472.093   77.25
471.799   77.65
471.508   76.875
471.212   77.5
470.921   77.4
470.629   78.375
470.334   79.3
470.042   78.375
469.747   76.65
469.455   78.05
469.163   76.825
468.87   76.625
468.577   77.5
468.283   77.65
467.99   77.025
467.696   77.425
467.403   77.3
467.112   76.725
466.818   76.625
466.525   76.675
466.231   76.9
465.938   78.125
465.645   77.1
465.351   77.825
465.06   76.575
464.766   77.125
464.473   78.125
464.181   78.4
463.885   76.575
463.594   77.9
463.298   75.875
463.007   77.7
462.712   78.325
462.419   76.7
462.126   78.1
461.832   77.25
461.538   77.425
461.244   78.8
460.951   76.425
460.658   78.375
460.365   78.6
460.07   78.5
459.778   76.95
459.483   77.625
459.19   75.825
458.896   76.5
458.604   76.875
458.311   76.5
458.017   77.475
457.723   77.45
457.429   76.575
457.134   76.575
456.841   76.6
456.547   76.4
456.253   77.675
455.961   76.8
455.665   77.05
455.372   77.225
455.078   77.3
454.784   75.225
454.49   76.575
454.197   77.2
453.902   74.775
453.609   74.175
453.314   75.575
453.021   73.25
452.727   75.1
452.433   74.025
452.14   74.15
451.847   74.25
451.552   74.125
451.259   75.6
450.963   73.025
450.669   74.625
450.375   74.125
450.081   73.95
449.786   72.875
449.492   74.275
449.198   73.175
448.903   73.775
448.611   73.275
448.314   71.875
448.022   74.05
447.728   72.775
447.434   73.3
447.139   73.475
446.846   72.325
446.55   72.6
446.256   72.8
445.962   74.4
445.667   72.725
445.373   72.325
445.077   74.55
444.784   72.95
444.489   72.625
444.194   73.15
443.9   75.125
443.607   73.275
443.312   73.5
443.018   74.275
442.724   73.825
442.427   74.15
442.135   74.05
441.839   73.975
441.545   72.875
441.25   73.025
440.956   75.55
440.661   74.1
440.365   74.125
440.071   75.3
439.776   72.85
439.481   72.55
439.188   74.575
438.893   73.05
438.598   73.25
438.303   74.4
438.008   76.825
437.713   73.65
437.419   74.775
437.124   75.1
436.828   73.75
436.533   74.85
436.238   74.425
435.943   75.275
435.648   74.625
435.354   75.5
435.061   75.15
434.764   74.875
434.468   76.25
434.175   76.3
433.879   74.7
433.583   76.95
433.289   77.875
432.993   77.025
432.698   76.525
432.403   77
432.107   77.7
431.812   77.8
431.518   79.275
431.223   78.525
430.928   78.6
430.632   76.95
430.337   77.925
430.042   78.35
429.746   79.45
429.451   77.2
429.156   77.05
428.86   77.45
428.565   77.575
428.271   78.15
427.975   77.225
427.679   78.225
427.384   78.5
427.089   80.75
426.794   79.475
426.498   78.825
426.201   81.775
425.907   79.825
425.611   79.825
425.315   80.125
425.021   80.75
424.725   81.775
424.428   83.575
424.134   84.675
423.839   83.85
423.541   84.775
423.246   87.25
422.952   89.1
422.654   90.125
422.359   90.325
422.063   91.725
421.768   93.125
421.473   92.725
421.177   90.4
420.881   94.175
420.585   89.275
420.289   90.15
419.993   90.1
419.697   90.25
419.401   87.675
419.105   88.2
418.81   84.6
418.515   86.325
418.219   84.7
417.923   85.05
417.625   85.4
417.329   85.45
417.034   83.6
416.737   83.225
416.441   82.775
416.146   82.625
415.85   82.4
415.554   80.6
415.257   82.5
414.961   81.35
414.666   82.1
414.369   81.425
414.073   80.775
413.778   82.3
413.48   80.75
413.184   81.65
412.888   82.475
412.593   81.3
412.296   82.575
411.999   80.7
411.703   82.6
411.407   81.85
411.11   82.375
410.812   84.175
410.517   84.125
410.223   82.9
409.925   82.35
409.628   81.5
409.332   82.1
409.036   80.975
408.739   81.75
408.442   82.7
408.146   80.725
407.85   82
407.554   84.45
407.256   83.2
406.959   83.45
406.663   83.225
406.366   85.85
406.07   86.125
405.773   87.225
405.478   86.75
405.181   88.85
404.885   88.9
404.587   90.725
404.289   90.025
403.992   92.7
403.697   93.225
403.4   94.7
403.104   93.275
402.806   93.125
402.508   91.75
402.211   90.625
401.916   88.6
401.619   88.525
401.321   87.175
401.024   87.2
400.729   86.4
400.433   85.725
400.135   84.225
399.837   83.975
399.54   83.325
399.243   84.7
398.946   85.525
398.649   83.825
398.353   84.875
398.055   85.275
397.757   84.5
397.461   84.275
397.163   83.275
396.867   83.525
396.57   85.3
396.271   85.45
395.974   84.875
395.677   83.725
395.381   84.875
395.083   84.9
394.787   83.125
394.489   85.825
394.19   85.1
393.894   84.525
393.596   85.875
393.3   86.475
393.003   87.675
392.705   89.5
392.407   88.05
392.109   86.825
391.812   90.2
391.515   87.7
391.216   89.65
390.919   90.225
390.622   91.625
390.325   90.525
390.027   91.4
389.729   93.8
389.432   93
389.134   94.175
388.836   94.425
388.538   95.075
388.241   96.825
387.945   96.75
387.647   97.9
387.349   100.3
387.051   101.3
386.753   104.025
386.454   101.425
386.156   102.3
385.858   104.35
385.561   105.575
385.262   103.375
384.967   102.85
384.67   102.975
384.371   101.325
384.073   102.375
383.775   100.9
383.478   101
383.178   100.325
382.88   98.375
382.582   100.575
382.283   98.4
381.985   100.75
381.688   98.375
381.391   100.9
381.093   100.675
380.796   100.525
380.498   100.325
380.198   101.5
379.9   100.875
379.603   103.575
379.305   105.525
379.006   107.4
378.707   107.475
378.409   110.1
378.11   113.225
377.812   119.875
377.514   124.05
377.216   129.875
376.917   139.075
376.618   148.125
376.32   161.975
376.022   170.425
375.726   175
375.426   171.625
375.128   167.875
374.829   155.075
374.531   142.85
374.231   132.425
373.934   121.625
373.636   111.85
373.337   107.85
373.038   103.075
372.739   100.85
372.441   95.575
372.144   92.625
371.846   89.775
371.546   88.725
371.248   90.075
370.949   89.125
370.648   88.325
370.352   86.35
370.053   87.05
369.755   85.15
369.455   84.775
369.155   86.125
368.856   85.325
368.558   84
368.259   83
367.962   83.85
367.661   83.3
367.362   84.675
367.065   82.625
366.766   83.775
366.466   84.475
366.167   83.4
365.869   83.725
365.57   86.225
365.271   86
364.972   85.525
364.671   85.675
364.372   85.425
364.074   85.7
363.775   87.925
363.476   85.75
363.177   87.325
362.878   85.05
362.579   85.7
362.279   86.025
361.98   87.1
361.682   86.475
361.382   85.85
361.083   84.775
360.785   84.25
360.486   86.325
360.187   83.525
359.886   84.4
359.585   84.3
359.287   82.95
358.988   83.475
358.688   85.85
358.389   83.475
358.09   83.225
357.791   84.575
357.491   84.375
357.192   85.375
356.893   84.6
356.593   86.2
356.294   85.45
355.995   85.625
355.694   86.4
355.395   85.6
355.096   87.9
354.795   86.575
354.496   88.475
354.196   90.7
353.896   88.525
353.598   92.35
353.299   92.575
352.999   92.675
352.699   93.275
352.398   91.275
352.099   93.4
351.799   91.85
351.498   91.05
351.199   89.725
350.9   92.6
350.601   89.325
350.301   89.3
350   89.1
349.701   90.15
349.399   89.65
349.101   89.225
348.8   91.125
348.501   88.675
348.201   89.55
347.902   89.45
347.602   89.75
347.299   91.025
347   88.975
346.7   90.85
346.401   91.875
346.101   90.375
345.802   92.875
345.5   92.7
345.2   94.2
344.901   93.6
344.6   90.875
344.3   94.65
344   93.375
343.7   95.15
343.399   94.525
343.1   95.6
342.798   94.7
342.499   95.375
342.198   98.4
341.898   95.075
341.597   97.575
341.297   98.05
340.996   99.1
340.696   98.875
340.396   99.625
340.097   102.65
339.797   101.925
339.494   102.45
339.193   102.325
338.894   104.925
338.594   106.525
338.292   104.675
337.992   107.85
337.69   107.8
337.391   110.65
337.091   112.2
336.79   110.65
336.487   110.7
336.188   108.9
335.888   112.75
335.588   107.925
335.287   108.375
334.986   109.2
334.685   109.85
334.385   111.375
334.085   110.3
333.784   112.625
333.482   110.975
333.181   111.025
332.881   109.6
332.581   112.55
332.278   112.175
331.979   115.5
331.677   114.175
331.377   115.25
331.076   116.45
330.774   116.45
330.473   114.45
330.173   115.875
329.87   117.4
329.57   117.125
329.268   117.175
328.968   120.575
328.668   118.675
328.365   119.9
328.064   116.95
327.764   120.6
327.463   120.975
327.163   120.725
326.859   123.35
326.56   124.25
326.258   123.15
325.957   125.3
325.654   121.1
325.354   125.55
325.055   126.025
324.752   129.325
324.449   128.75
324.149   128.8
323.847   130.15
323.545   129.675
323.245   131.9
322.943   130.85
322.644   131.475
322.34   134.775
322.039   134.575
321.738   137.425
321.436   137.225
321.134   137.7
320.834   140.15
320.533   140.025
320.229   141.95
319.928   143.35
319.627   140.85
319.324   144.825
319.023   143.425
318.723   149.15
318.42   147.075
318.118   147.725
317.817   149.45
317.516   151.75
317.213   151.4
316.912   154.35
316.61   155.575
316.307   157.675
316.006   158.95
315.706   157.8
315.401   163.525
315.102   164.5
314.799   164.1
314.498   167.85
314.195   167
313.895   174.5
313.592   172.95
313.29   171.875
312.988   179.5
312.684   178.425
312.383   180.35
312.082   183.85
311.778   183.925
311.478   187.2
311.176   188.7
310.872   189.7
310.571   195.475
310.271   196.6
309.967   197.15
309.665   200.45
309.363   203.175
309.06   205.025
308.759   207.025
308.455   206.7
308.153   210.4
307.852   211.05
307.55   215.8
307.246   219.75
306.945   224.025
306.641   233.325
306.34   241.175
306.038   253.2
305.733   261.5
305.433   267.3
305.131   275.225
304.827   275.225
304.526   275.95
304.224   272.575
303.92   275.6
303.619   277.9
303.314   283.075
303.014   288.8
302.71   302.1
302.408   319.875
302.104   339.125
301.801   367.075
301.5   404.025
301.198   442.7
300.895   506.425
300.591   584.4
300.289   693.725
299.986   838.025
299.685   1036.22
299.381   1278.15
299.078   1559.22
298.775   1797.05
298.474   1950.48
298.169   2000.45
297.867   1881.38
297.562   1674.55
297.261   1410.88
296.959   1158.27
296.655   933.2
296.354   767.125
296.049   623.975
295.746   535.125
295.441   463.3
295.141   407.325
294.839   365.375
294.534   340.425
294.232   320.975
293.928   305.9
293.625   297.75
293.32   288.8
293.02   281.4
292.717   279.075
292.413   278.675
292.111   275.225
291.807   276.225
291.504   278.525
291.199   278.175
290.897   279.475
290.593   288.875
290.291   294.55
289.986   299.175
289.685   312.35
289.381   323.325
289.076   334.275
288.775   348.225
288.47   361.8
288.168   376.175
287.863   399.3
287.56   414.05
287.257   443.275
286.952   463.825
286.648   494.825
286.347   531.175
286.042   566.425
285.739   610.325
285.435   657.65
285.133   704.925
284.828   760.775
284.525   821.5
284.223   886.075
283.918   944.925
283.613   1004.35
283.312   1042.12
283.006   1073.85
282.704   1070.15
282.398   1038.03
282.096   977.825
281.79   904.375
281.488   817.425
281.184   730.5
280.88   645.625
280.576   569.2
280.274   511
279.969   455.625
279.666   401.425
279.36   362.925
279.057   332.825
278.753   308.475
278.449   281.2
278.146   265.25
277.841   247.075
277.538   233.425
277.232   223.65
276.929   212.6
276.624   203
276.32   196.1
276.016   190.7
275.714   183.875
275.408   180.025
275.104   177.8
274.801   174.325
274.495   170.85
274.191   165.225
273.886   165.025
273.584   160.75
273.278   159.925
272.975   159.75
272.67   155.775
272.366   155.05
272.062   153.8
271.757   152.1
271.454   151.975
271.148   150.175
270.844   149.55
270.54   148.025
270.236   145.7
269.932   147.5
269.626   148.075
269.323   147.225
269.018   146.375
268.713   144.725
268.409   146.75
268.104   147.25
267.799   147.875
267.494   149.925
267.191   150.025
266.886   156
266.58   156.05
266.277   157.75
265.972   160.275
265.667   163.725
265.363   167.175
265.057   173.35
264.753   175.5
264.447   178.575
264.144   181.675
263.839   180.225
263.532   178.425
263.229   177.55
262.924   172.6
262.619   168.425
262.315   162.3
262.009   158.225
261.704   150.325
261.399   144.7
261.093   140
260.79   139.5
260.484   133.775
260.181   133.65
259.875   129.225
259.569   126.85
259.263   125.9
258.96   122.725
258.654   123.175
258.349   121.85
258.044   119.9
257.738   119.45
257.434   119.65
257.128   117.725
256.822   117.275
256.52   117.825
256.213   116.15
255.906   114.4
255.602   114.45
255.297   114.475
254.991   111.825
254.686   114.625
254.382   112.8
254.075   109.9
253.771   110.9
253.465   110.75
253.158   113.475
252.854   110.875
252.549   108.1
252.242   109.725
251.938   107.65
251.633   107.425
251.326   107.35
251.021   103.5
250.717   106.3
250.41   106.575
250.104   106.2
249.799   102.375
249.492   99.775
249.188   101.95
248.882   100.9
248.576   99.775
248.27   97.9
247.965   98.725
247.659   96.35
247.353   97.25
247.046   97.8
246.743   96.375
246.437   96.5
246.13   96.225
245.824   96.65
245.52   94.375
245.213   95.925
244.907   95.875
244.602   95.675
244.295   94.15
243.988   95.475
243.681   95.025
243.378   94.15
243.07   94.925
242.764   94.5
242.459   94.55
242.153   91.85
241.847   93.775
241.54   93.375
241.236   92.225
240.93   91.45
240.622   92.8
240.316   92.025
240.01   92.025
239.705   92.6
239.397   90.975
239.092   92.125
238.786   91.425
238.479   89.775
238.172   92.15
237.865   92.175
237.561   90.025
237.253   91.625
236.947   90
236.641   90.125
236.335   88.825
236.029   90.725
235.723   91.5
235.415   91.7
235.107   89.275
234.804   92.05
234.497   88.85
234.189   90.55
233.883   89.475
233.576   88.625
233.27   92.1
232.964   89.4
232.657   92.125
232.351   88.675
232.044   91.375
231.737   89.3
231.43   88.9
231.123   92.175
230.815   91.1
230.511   88.125
230.204   89.575
229.896   89.825
229.59   90.2
229.282   88.55
228.975   91.95
228.67   88.95
228.363   88.875
228.056   90.2
227.748   87.15
227.442   87.825
227.137   87.975
226.829   87.75
226.521   87.95
226.214   89.425
225.908   88.375
225.601   87.975
225.293   87.325
224.987   85.775
224.68   87.35
224.372   87.65
224.064   87.325
223.757   88.9
223.45   87.025
223.144   86.3
222.836   86.725
222.528   87.675
222.222   87.2
221.914   86.1
221.607   87.675
221.302   86.7
220.993   87.7
220.686   87.65
220.378   86.2
220.07   87.375
219.763   87.125
219.457   86.625
219.149   85.95
218.843   87.475
218.535   87.1
218.227   85.45
217.919   87.35
217.611   85.375
217.306   88.175
216.998   85.375
216.689   86.75
216.383   84.7
216.075   85.55
215.768   85
215.459   86.3
215.151   84.825
214.843   85.6
214.535   85.75
214.23   84.875
213.923   84.575
213.614   86.35
213.307   84.675
212.998   84.4
212.69   85.275
212.383   86.2
212.074   85.85
211.767   85.95
211.458   84.675
211.151   85.6
210.843   84.4
210.535   86.6
210.227   85.075
209.921   84.7
209.612   85.9
209.305   85.85
208.996   85.275
208.688   84.775
208.38   86.75
208.071   84.225
207.763   84.075
207.456   84.65
207.147   87.675
206.84   86.675
206.53   88.175
206.223   88.325
205.917   86.35
205.608   87.275
205.3   85.45
204.991   84.9
204.684   89.125
204.375   85.425
204.066   85.1
203.758   86.2
203.449   85.225
203.142   86.625
202.833   85.6
202.524   85.325
202.216   84.775
201.907   83.65
201.6   84.2
201.29   83.35
200.981   85.275
200.676   85.475
200.367   81.875
200.059   80.575
199.751   74.15
199.442   66.2
199.133   57.4
198.824   43.8
198.516   34.2
198.206   25.55
197.897   17.05
197.59   11.875
197.281   8.1
196.972   6.425
196.663   4.525
196.355   4.1
196.047   3.425
195.737   3.2
195.43   2.525
195.12   2.8
194.812   2.5
194.503   1.925
194.194   1.925
