XY
Wavenumber     
Intensity      
"Start : "1219.12
"Stop  : "1476.96
S25424i.m3d

1476.96   0.25
1476.72   0.025
1476.47   0.5
1476.23   0.2
1475.98   0.125
1475.74   0.225
1475.49   0.25
1475.25   -0.05
1475   0.125
1474.76   0.225
1474.51   0.1
1474.27   0.525
1474.02   0.525
1473.78   -3.72529e-09
1473.53   0.025
1473.29   0.025
1473.04   0.15
1472.8   0.275
1472.55   0.2
1472.31   0.15
1472.06   0.25
1471.81   0.15
1471.57   0.35
1471.32   0.35
1471.08   0.4
1470.83   0.4
1470.59   0.45
1470.34   0.35
1470.1   0.275
1469.85   0.1
1469.61   0.4
1469.36   0.4
1469.12   0.15
1468.87   0.4
1468.62   0.275
1468.38   0.325
1468.13   0.175
1467.89   0.3
1467.64   0.25
1467.4   0.35
1467.15   0.4
1466.91   0.325
1466.66   0.325
1466.42   0.475
1466.17   0.45
1465.93   0.325
1465.68   0.25
1465.44   0.575
1465.19   0.5
1464.94   0.375
1464.7   0.575
1464.45   0.375
1464.21   0.85
1463.96   0.5
1463.71   0.725
1463.47   1.025
1463.22   0.925
1462.98   0.95
1462.73   1.2
1462.49   1.775
1462.24   2.95
1462   6.6
1461.75   12.2
1461.5   19.85
1461.26   28.375
1461.01   39.775
1460.77   48.15
1460.52   58.15
1460.27   62.45
1460.03   67.65
1459.78   70.375
1459.54   69.6
1459.29   71.475
1459.04   72.25
1458.8   71.5
1458.55   71.85
1458.31   70.125
1458.06   72.225
1457.81   70.975
1457.57   72.075
1457.32   72
1457.08   72.025
1456.83   73.825
1456.58   72.825
1456.34   71.5
1456.09   72.45
1455.84   73.1
1455.6   73.225
1455.35   73.75
1455.11   74.275
1454.86   73.575
1454.62   74.025
1454.37   73.8
1454.12   72.675
1453.88   72.4
1453.63   73.5
1453.38   74.075
1453.14   73.775
1452.89   73.575
1452.65   72.875
1452.4   71.95
1452.15   71.975
1451.91   70.775
1451.66   72
1451.41   73.3
1451.17   73.95
1450.92   73.875
1450.67   72.8
1450.43   74
1450.18   72.125
1449.93   72.2
1449.69   72.525
1449.44   71.8
1449.2   72.425
1448.95   72.15
1448.7   71.85
1448.46   72.8
1448.21   73.775
1447.96   71.7
1447.72   74.225
1447.47   72.975
1447.22   72.75
1446.98   73.025
1446.73   72.3
1446.48   71.25
1446.24   72.65
1445.99   73.775
1445.74   71.725
1445.5   72.075
1445.25   72.65
1445   72.95
1444.76   73.475
1444.51   71.275
1444.26   73.625
1444.02   72.075
1443.77   71.575
1443.52   72.15
1443.28   71.325
1443.03   72.675
1442.78   73.2
1442.54   72.975
1442.29   71.625
1442.04   70.775
1441.79   71.9
1441.55   72.525
1441.3   72.15
1441.05   71.05
1440.81   73.325
1440.56   71.875
1440.31   74.125
1440.07   72.15
1439.82   72.125
1439.57   71.775
1439.33   72.95
1439.08   71.375
1438.83   72.6
1438.58   72.675
1438.34   72.35
1438.09   72.6
1437.84   72.2
1437.59   74.2
1437.35   71.7
1437.1   71.175
1436.85   71.85
1436.61   71.1
1436.36   72.075
1436.11   72.125
1435.87   72.075
1435.62   73.5
1435.37   72.075
1435.12   72.175
1434.88   72.875
1434.63   71.55
1434.38   74.475
1434.13   72.475
1433.89   70.925
1433.64   72.875
1433.39   70.95
1433.15   71.925
1432.9   72.65
1432.65   71.9
1432.4   72.55
1432.16   71.85
1431.91   71.825
1431.66   71.75
1431.41   74.125
1431.17   71.75
1430.92   72.575
1430.67   73.4
1430.42   73.2
1430.18   71.825
1429.93   73.225
1429.68   71.9
1429.43   71
1429.19   71.3
1428.94   71.85
1428.69   73.625
1428.44   73.15
1428.19   70.625
1427.95   72.55
1427.7   73.85
1427.45   73.225
1427.2   71.575
1426.96   73.075
1426.71   71.875
1426.46   73.7
1426.21   72.85
1425.96   72.975
1425.72   71.775
1425.47   72.6
1425.22   72.6
1424.97   73.4
1424.73   72.4
1424.48   71.1
1424.23   71.45
1423.98   73.025
1423.73   72.25
1423.49   73.2
1423.24   72.525
1422.99   72.125
1422.74   71.525
1422.49   73.3
1422.25   72.775
1422   72.775
1421.75   72.325
1421.5   72.875
1421.26   72.35
1421.01   73.575
1420.76   71.575
1420.51   72.75
1420.26   72.75
1420.01   72.1
1419.77   72.525
1419.52   74.5
1419.27   73.025
1419.02   71.85
1418.77   71.725
1418.52   72.275
1418.28   72.5
1418.03   72.4
1417.78   71.225
1417.53   72.75
1417.28   72.325
1417.04   72.7
1416.79   72.825
1416.54   72.6
1416.29   71.6
1416.04   72.9
1415.79   74.425
1415.55   71.65
1415.3   72.1
1415.05   71.65
1414.8   72.6
1414.55   73.2
1414.3   71.15
1414.06   72.05
1413.81   72.225
1413.56   73
1413.31   71.225
1413.06   71.675
1412.81   70.825
1412.57   72.275
1412.32   74.325
1412.07   72.65
1411.82   71.125
1411.57   72.125
1411.32   73.975
1411.07   73.45
1410.82   72.575
1410.58   73.875
1410.33   72.625
1410.08   73
1409.83   72.825
1409.58   72.875
1409.33   72.275
1409.08   73.9
1408.83   72.5
1408.59   72.75
1408.34   71.675
1408.09   72.7
1407.84   72.1
1407.59   72.325
1407.34   73.575
1407.09   73.725
1406.84   71.9
1406.59   72.05
1406.35   74.3
1406.1   73
1405.85   73.7
1405.6   71.825
1405.35   73.125
1405.1   71.35
1404.85   72.675
1404.6   71.65
1404.36   69.3
1404.11   73.425
1403.86   72.725
1403.61   72.65
1403.36   73.75
1403.11   73.075
1402.86   73.625
1402.61   72.925
1402.36   72.175
1402.12   73.65
1401.87   71.275
1401.62   72.125
1401.37   72.675
1401.12   73.45
1400.87   73.775
1400.62   72.725
1400.37   72.95
1400.12   72.375
1399.87   72.1
1399.62   72.125
1399.37   71.95
1399.12   72.65
1398.87   72.95
1398.63   73.025
1398.38   71.5
1398.13   73.225
1397.88   72.25
1397.63   71.95
1397.38   72.4
1397.13   73.75
1396.88   71.575
1396.63   72.15
1396.38   73.275
1396.13   73.1
1395.88   72.175
1395.63   71.9
1395.38   72.975
1395.13   72.55
1394.88   72.475
1394.63   72.325
1394.38   72.125
1394.14   72.8
1393.89   73.275
1393.64   70.975
1393.39   71.75
1393.14   72.75
1392.89   73.65
1392.64   73.125
1392.39   75.05
1392.14   73.2
1391.89   72.3
1391.64   73.075
1391.39   73.2
1391.14   72.825
1390.89   72.125
1390.64   74.4
1390.39   72.75
1390.14   73.275
1389.89   74.475
1389.64   72.65
1389.39   72.225
1389.14   71.475
1388.89   73.25
1388.64   73.3
1388.39   73.15
1388.14   70.925
1387.89   72.65
1387.64   72.825
1387.39   71.775
1387.14   72.875
1386.89   73.5
1386.64   73.975
1386.39   73.65
1386.14   73.375
1385.89   72.775
1385.64   73.325
1385.39   74.075
1385.14   73.475
1384.89   74.5
1384.64   74.35
1384.39   74.35
1384.14   75.4
1383.89   74.075
1383.64   73.775
1383.39   74.65
1383.14   74.475
1382.89   74.5
1382.64   74.25
1382.39   73.675
1382.14   73.4
1381.89   73.4
1381.64   73.35
1381.39   72.475
1381.14   74.975
1380.89   74.675
1380.64   75.425
1380.39   73.575
1380.14   73.225
1379.89   74.125
1379.64   74.1
1379.39   75.325
1379.14   73.825
1378.89   75.1
1378.64   74.225
1378.39   75.3
1378.14   73.925
1377.88   74.55
1377.64   73.875
1377.39   74.7
1377.13   75.375
1376.88   74.525
1376.63   76.525
1376.38   74.925
1376.13   73.45
1375.88   74.7
1375.63   74.425
1375.38   73.675
1375.13   74.525
1374.88   76.35
1374.63   74.25
1374.38   75.675
1374.13   75.275
1373.88   74
1373.63   74.275
1373.37   74.65
1373.12   75.5
1372.87   75.6
1372.62   75.4
1372.37   74.225
1372.12   74.675
1371.87   74.85
1371.62   74.475
1371.37   75.35
1371.12   74.925
1370.87   74.95
1370.62   76.075
1370.37   74.7
1370.11   76.525
1369.86   75.025
1369.61   74.675
1369.36   75.025
1369.11   75.8
1368.86   76.225
1368.61   73.025
1368.36   74.25
1368.11   75.1
1367.86   75.925
1367.61   74.05
1367.35   75.35
1367.1   74.725
1366.85   75.775
1366.6   75.35
1366.35   76.5
1366.1   74.85
1365.85   74.025
1365.6   76.525
1365.35   77.25
1365.09   75.45
1364.84   76.775
1364.59   75.875
1364.34   74.95
1364.09   75.85
1363.84   76.6
1363.59   76.2
1363.34   76.65
1363.08   76.6
1362.83   75.9
1362.58   75.45
1362.33   77.35
1362.08   74.8
1361.83   76.4
1361.58   75.825
1361.33   76.15
1361.07   76.625
1360.82   76.55
1360.57   76.15
1360.32   77.35
1360.07   76.525
1359.82   77.05
1359.57   76.075
1359.31   76.75
1359.06   74.125
1358.81   76.725
1358.56   76.8
1358.31   74.675
1358.06   75.225
1357.8   76.55
1357.55   73.6
1357.3   77.675
1357.05   75.675
1356.8   78.1
1356.55   75.45
1356.29   76.85
1356.04   75.05
1355.79   76.4
1355.54   77.725
1355.29   76.675
1355.04   76.3
1354.78   77.925
1354.53   78.3
1354.28   78.35
1354.03   75.7
1353.78   77.45
1353.53   78.025
1353.27   77.275
1353.02   77.15
1352.77   77.25
1352.52   77.775
1352.27   77.725
1352.01   78.625
1351.76   77.55
1351.51   79.15
1351.26   77.5
1351.01   77.275
1350.76   79.775
1350.5   78.475
1350.25   79.025
1350   77.925
1349.75   79.675
1349.5   78.275
1349.24   78.575
1348.99   79.425
1348.74   77.925
1348.49   79.075
1348.23   78.7
1347.98   79.2
1347.73   79.475
1347.48   80.225
1347.23   78.625
1346.97   79.9
1346.72   78.95
1346.47   79.7
1346.22   79.425
1345.96   79.25
1345.71   78.575
1345.46   78.5
1345.21   80.4
1344.96   79.75
1344.7   81.05
1344.45   79.55
1344.2   80.475
1343.95   79.1
1343.69   79.55
1343.44   80.525
1343.19   80.15
1342.94   80.725
1342.68   80.6
1342.43   79
1342.18   80.4
1341.93   80.55
1341.67   79.925
1341.42   80.15
1341.17   80
1340.92   80.85
1340.67   81.5
1340.41   81.325
1340.16   81.025
1339.91   82.025
1339.66   82.25
1339.4   80.2
1339.15   82.375
1338.9   80.55
1338.64   81.575
1338.39   80.75
1338.14   83.675
1337.89   80.65
1337.63   81.6
1337.38   82.175
1337.13   81.275
1336.88   82.075
1336.62   81.4
1336.37   82.075
1336.12   81.175
1335.86   83.05
1335.61   82.075
1335.36   83.2
1335.11   83.775
1334.85   85.175
1334.6   81.925
1334.35   82.75
1334.09   85.85
1333.84   83.2
1333.59   82.275
1333.34   83.4
1333.08   82.85
1332.83   82.65
1332.58   82.75
1332.32   86.775
1332.07   83.275
1331.82   84.1
1331.56   83.8
1331.31   84.175
1331.06   85.55
1330.81   85
1330.55   85.675
1330.3   85.8
1330.05   84.8
1329.79   86.5
1329.54   84.75
1329.29   85.025
1329.03   84.875
1328.78   85.8
1328.53   85.975
1328.27   86.275
1328.02   87.125
1327.77   88.075
1327.52   84.55
1327.26   86.9
1327.01   85.125
1326.75   88.375
1326.5   87.3
1326.25   88.7
1325.99   88.25
1325.74   87.975
1325.49   86.325
1325.23   86.875
1324.98   88.35
1324.73   86.875
1324.47   88
1324.22   88.725
1323.97   88.725
1323.72   88.25
1323.46   89.475
1323.21   87.125
1322.95   89.725
1322.7   89.9
1322.45   88.825
1322.19   89.15
1321.94   87.55
1321.69   90.525
1321.43   89.95
1321.18   89.075
1320.92   89.85
1320.67   89.75
1320.42   91.075
1320.17   90.85
1319.91   91.075
1319.66   92.55
1319.4   92.575
1319.15   91.675
1318.9   91.875
1318.64   92.825
1318.39   91.65
1318.13   92.15
1317.88   95.725
1317.63   95.15
1317.37   95.275
1317.12   93.95
1316.86   94.275
1316.61   95.1
1316.36   96.675
1316.1   95.8
1315.85   94.75
1315.6   94.875
1315.34   96.2
1315.09   97.125
1314.83   96.575
1314.58   97.575
1314.33   98.3
1314.07   99.75
1313.82   97.975
1313.56   100.5
1313.31   98.5
1313.06   99.425
1312.8   100.675
1312.55   99.75
1312.29   102.55
1312.04   99.675
1311.79   103.175
1311.53   103.15
1311.28   102.875
1311.02   101.3
1310.77   102.4
1310.52   105.425
1310.26   101.9
1310.01   103
1309.75   107.025
1309.5   106.05
1309.24   109.125
1308.99   106.475
1308.74   107.8
1308.48   110.45
1308.23   107.925
1307.97   111.775
1307.72   111.925
1307.46   111.775
1307.21   112.15
1306.95   112.1
1306.7   112.45
1306.44   114
1306.19   112.725
1305.94   113.725
1305.68   113.775
1305.43   113.825
1305.17   113.35
1304.92   112.55
1304.66   113.85
1304.41   115.4
1304.16   114.05
1303.9   114.525
1303.65   114.275
1303.39   113.475
1303.14   114.2
1302.88   113.475
1302.63   113.9
1302.37   113.225
1302.12   114.2
1301.86   112.3
1301.61   114.375
1301.35   111.075
1301.1   113.125
1300.84   111.125
1300.59   111.95
1300.33   109.95
1300.08   112.35
1299.82   111.625
1299.57   108.225
1299.32   110.1
1299.06   109.4
1298.81   108.4
1298.55   109.025
1298.3   109.5
1298.04   107.975
1297.79   110.775
1297.53   108.45
1297.28   110.25
1297.02   108.525
1296.77   108.3
1296.51   108.6
1296.26   106.85
1296   108.025
1295.75   104.475
1295.49   105.425
1295.24   104.125
1294.98   105.4
1294.73   105.125
1294.47   103.375
1294.22   101.775
1293.96   100.175
1293.71   100.4
1293.45   100.8
1293.2   98.05
1292.94   99.325
1292.69   97.85
1292.43   96.775
1292.17   95.925
1291.92   98.6
1291.66   95.35
1291.41   94.425
1291.15   94.75
1290.9   95.125
1290.64   93.675
1290.39   93.075
1290.13   92.675
1289.88   92.85
1289.62   92.875
1289.37   91.625
1289.11   90.25
1288.86   91.95
1288.6   90.325
1288.34   88.825
1288.09   87.8
1287.83   90.775
1287.58   87.425
1287.32   88.95
1287.07   89.875
1286.81   87.075
1286.56   89.625
1286.3   87.325
1286.05   89.1
1285.79   88.025
1285.54   86.95
1285.28   87.125
1285.02   86.475
1284.77   85.8
1284.51   86.625
1284.26   85.625
1284   86.025
1283.75   84.275
1283.49   85.825
1283.23   85.425
1282.98   83.8
1282.72   86.125
1282.47   86.6
1282.21   84.325
1281.95   85.1
1281.7   82.55
1281.44   86.75
1281.19   82.775
1280.93   84.425
1280.68   82.95
1280.42   84.95
1280.16   81.925
1279.91   85.475
1279.65   85.325
1279.39   83.575
1279.14   84.6
1278.88   83.925
1278.63   84.2
1278.37   81.45
1278.12   82.3
1277.86   83.525
1277.6   82.675
1277.35   82.4
1277.09   82.325
1276.84   82.125
1276.58   81.95
1276.32   83.3
1276.07   82.125
1275.81   83.1
1275.56   83.325
1275.3   81.5
1275.04   82.4
1274.79   81.4
1274.53   82.425
1274.27   79.8
1274.02   82.775
1273.76   82.6
1273.51   83.7
1273.25   80.725
1272.99   80.725
1272.74   79.6
1272.48   81.525
1272.22   80.425
1271.97   79.475
1271.71   79.775
1271.46   80.8
1271.2   79.675
1270.94   80.375
1270.68   79.925
1270.43   79.4
1270.17   79.6
1269.92   78.95
1269.66   78.425
1269.4   79.8
1269.15   80.975
1268.89   78.525
1268.63   77.2
1268.38   78.65
1268.12   79.375
1267.86   80.325
1267.61   80.95
1267.35   79.325
1267.09   81.05
1266.84   79.15
1266.58   78.775
1266.32   82.675
1266.07   81.8
1265.81   79.45
1265.55   83.25
1265.3   78.9
1265.04   78.55
1264.79   79.625
1264.53   80.325
1264.27   80.875
1264.01   79.575
1263.76   81.525
1263.5   81.175
1263.24   80
1262.99   80.825
1262.73   79.575
1262.47   80.2
1262.22   79.5
1261.96   79.625
1261.7   80.375
1261.45   81.1
1261.19   81
1260.93   81.15
1260.67   81.15
1260.42   81.3
1260.16   81.675
1259.9   80.725
1259.65   80.325
1259.39   80.75
1259.13   81.75
1258.88   79.15
1258.62   78.275
1258.36   79.925
1258.1   78.325
1257.85   81.15
1257.59   80.95
1257.33   80.375
1257.08   80.075
1256.82   79.55
1256.56   80.325
1256.3   80.4
1256.05   80.85
1255.79   82.55
1255.53   80.575
1255.28   78.65
1255.02   77.85
1254.76   80.075
1254.5   79.375
1254.25   80.35
1253.99   80.575
1253.73   79.15
1253.47   79.45
1253.22   77.925
1252.96   79.075
1252.7   78.525
1252.44   79.35
1252.19   78.425
1251.93   80.6
1251.67   80.1
1251.41   80.675
1251.16   81.575
1250.9   79.925
1250.64   79.85
1250.38   79.225
1250.12   79.525
1249.87   78.775
1249.61   80.15
1249.35   80.2
1249.1   78.225
1248.84   80.05
1248.58   79.65
1248.32   79.325
1248.07   79.15
1247.81   79.775
1247.55   78.75
1247.29   79.6
1247.04   79.575
1246.78   79.05
1246.52   79.45
1246.26   78.375
1246   78.35
1245.75   77.825
1245.49   77.675
1245.23   78.45
1244.97   79.55
1244.71   78.075
1244.46   80.15
1244.2   77.625
1243.94   79.7
1243.68   78.125
1243.42   80.425
1243.17   77.85
1242.91   78.725
1242.65   78.475
1242.39   77.45
1242.13   78.675
1241.88   80.45
1241.62   78.975
1241.36   77.45
1241.1   78.625
1240.84   79.05
1240.59   78.325
1240.33   77.225
1240.07   79.5
1239.81   79.05
1239.55   78.125
1239.3   78.4
1239.04   78.025
1238.78   79
1238.52   78.1
1238.26   78.975
1238   78.7
1237.75   78.475
1237.49   77.1
1237.23   77.125
1236.97   77
1236.71   77.875
1236.46   78.1
1236.2   76.9
1235.94   79.8
1235.68   75.825
1235.42   77.575
1235.16   76.675
1234.9   76.85
1234.65   78.325
1234.39   77.175
1234.13   77.5
1233.87   76.05
1233.61   78.25
1233.35   78.25
1233.09   79.15
1232.84   77.575
1232.58   78.35
1232.32   76.9
1232.06   79.4
1231.8   78.3
1231.54   76.425
1231.29   76.625
1231.03   78.45
1230.77   76.675
1230.51   76.575
1230.25   76.65
1229.99   77.5
1229.73   77.3
1229.47   77.075
1229.22   77.975
1228.96   77.475
1228.7   76.325
1228.44   76.85
1228.18   77.25
1227.92   77.6
1227.66   77.25
1227.41   75.525
1227.14   78.05
1226.89   75.475
1226.63   77.325
1226.37   77.2
1226.11   75
1225.85   74.425
1225.59   72.85
1225.33   72.1
1225.07   68.425
1224.82   59.55
1224.56   51.275
1224.3   38.925
1224.04   31
1223.78   21.375
1223.52   14.85
1223.26   10.15
1223   7.425
1222.74   5.5
1222.48   4.45
1222.22   3.05
1221.97   2.475
1221.71   2.45
1221.45   2.1
1221.19   1.8
1220.93   1.875
1220.67   1.5
1220.41   1.225
1220.15   1.4
1219.89   1.5
1219.63   1.7
1219.37   1.15
1219.12   1.15
