XY
Wavenumber     
Intensity      
"Start : "194.292
"Stop  : "501.097
S25424n.m3d

501.097   0.1
500.805   0.1
500.515   0.0875
500.224   0.075
499.934   0.1125
499.642   0.1375
499.351   0.0625
499.059   0.0625
498.769   0.3625
498.477   0.2125
498.184   0.1
497.893   0.075
497.603   0.225
497.312   0.1
497.019   0.275
496.727   0.125
496.437   0.125
496.145   -0.0125
495.855   0.0375
495.562   0.1625
495.271   -0.0625
494.979   -0.025
494.688   0.025
494.395   0.1
494.104   0.1375
493.812   0.1
493.521   0.1875
493.228   0.0875
492.938   0.2875
492.646   0.2375
492.354   0.1875
492.062   0.0375
491.771   0.1625
491.479   0.0875
491.188   0.1125
490.896   0.15
490.604   0.2
490.312   0.125
490.019   0.1625
489.729   0.1375
489.437   0.0625
489.145   0.175
488.852   0.275
488.562   0.275
488.269   0.35
487.976   0.2875
487.685   0.35
487.394   0.6375
487.102   1.4
486.809   2.0375
486.517   2.8375
486.226   4.45
485.933   5.825
485.641   7.0875
485.351   7.9875
485.058   9.425
484.765   9.5625
484.473   9.975
484.179   10.225
483.888   10.575
483.597   10.7625
483.304   10.8375
483.011   10.675
482.72   10.5125
482.427   10.9625
482.135   10.8625
481.843   10.9875
481.55   10.7375
481.257   10.9875
480.966   10.6875
480.674   10.6
480.381   11.1375
480.089   10.7125
479.795   10.9625
479.503   10.7
479.212   11.225
478.919   10.8
478.626   10.7625
478.334   10.9375
478.04   10.9125
477.749   10.8
477.457   11.275
477.164   11.1875
476.871   10.8875
476.577   11.075
476.284   10.9125
475.993   11.9875
475.699   11.25
475.407   11.4375
475.116   10.875
474.823   11.1625
474.53   11.525
474.238   10.6125
473.943   10.95
473.651   10.875
473.357   11.025
473.066   11.225
472.773   11.4375
472.48   11.6375
472.188   10.95
471.895   11.225
471.601   10.8875
471.31   11.25
471.017   11.7625
470.723   11.525
470.43   11.0625
470.137   10.8875
469.845   11.2375
469.552   10.8875
469.259   11.5125
468.966   10.9875
468.672   11.2625
468.379   11.1125
468.086   10.9875
467.793   11.425
467.498   11.225
467.206   11.125
466.914   11.1375
466.619   11.1
466.327   11.375
466.033   10.9875
465.741   11.0375
465.447   11.6125
465.154   11.6625
464.861   11.1375
464.567   11.2125
464.274   11.9125
463.98   11.4875
463.688   11.375
463.395   11.3125
463.102   11.5125
462.808   11.95
462.514   11.5125
462.222   11.3375
461.927   11.45
461.634   11.6
461.339   11.3625
461.048   10.9625
460.752   11.625
460.46   11.5
460.166   11.1625
459.873   11.5125
459.58   11.4
459.285   11.5625
458.991   11.2625
458.697   11.7
458.406   11.2625
458.112   11.3375
457.818   11.3875
457.524   11.85
457.23   11.45
456.937   11.625
456.643   11.725
456.349   11.6125
456.056   11.7125
455.762   11.8375
455.468   12.075
455.174   11.225
454.88   11.5625
454.585   11.8125
454.292   11.425
453.998   11.575
453.704   11.5125
453.41   11.45
453.116   11.925
452.823   11.3125
452.529   11.75
452.235   11.1875
451.941   11.775
451.646   11.6875
451.354   11.2875
451.058   11.2625
450.765   11.325
450.47   11.9875
450.177   11.4625
449.883   11.5125
449.588   11.925
449.293   11.7625
449.001   11.5375
448.705   11.425
448.41   11.3125
448.117   11.4875
447.823   11.65
447.529   11.7375
447.234   11.45
446.94   11.4875
446.645   11.8
446.352   11.575
446.058   11.5
445.764   11.6625
445.468   11.2625
445.175   11.4625
444.879   11.8375
444.585   11.7375
444.29   11.475
443.996   11.9625
443.703   12.0625
443.408   11.5
443.114   11.275
442.817   12.3125
442.524   11.875
442.229   11.4
441.933   11.7
441.641   11.5125
441.345   11.9375
441.052   11.825
440.756   11.75
440.462   11.7375
440.167   11.925
439.871   11.4875
439.578   11.7625
439.282   11.825
438.988   11.5875
438.693   11.7125
438.397   12.025
438.104   11.7875
437.808   11.525
437.515   11.9875
437.219   11.8875
436.924   12.0125
436.63   12.2375
436.334   11.7875
436.04   11.7
435.744   11.825
435.449   11.7375
435.155   12.0875
434.859   12.2875
434.566   12.275
434.27   12.15
433.974   11.3375
433.679   12.1875
433.384   12.125
433.092   11.675
432.795   11.7125
432.499   12.1125
432.204   12.2
431.909   12.2125
431.613   11.8375
431.319   12.1875
431.023   12.65
430.729   12.2
430.434   11.7625
430.138   12.0625
429.843   11.6625
429.548   12
429.251   12.475
428.957   12.0875
428.661   11.7375
428.365   12.0625
428.07   12.0125
427.775   12.0625
427.479   12.075
427.186   11.9125
426.889   12.2
426.593   12.05
426.299   12.3625
426.003   12.1
425.706   11.95
425.411   12.3875
425.116   12.4625
424.821   12.4625
424.526   12.025
424.229   12.0625
423.933   12.2125
423.639   11.9625
423.343   12.7
423.046   12.7625
422.751   12.5
422.456   12.3875
422.159   12.175
421.862   12.3125
421.568   11.9875
421.272   11.7875
420.976   12.2
420.682   12.0125
420.385   11.6625
420.089   11.9875
419.794   12.475
419.498   12.1875
419.201   12.5
418.904   12.4125
418.61   11.9875
418.314   12.2875
418.017   12.1125
417.722   12.3875
417.427   12.05
417.129   12.825
416.833   12.4375
416.537   12.3875
416.242   12.35
415.945   12.3625
415.649   12.15
415.354   12.3875
415.058   12.6375
414.761   12.45
414.466   12.6375
414.17   12.45
413.872   12.4625
413.578   12.6375
413.28   12.475
412.984   12.125
412.688   12.4625
412.391   12.525
412.097   12.25
411.8   11.8375
411.503   12.3375
411.207   12.7375
410.91   12.475
410.614   12.7
410.316   12.4875
410.02   12.5
409.725   12.3375
409.429   12.9
409.132   12.0625
408.835   12.5
408.538   12.5625
408.243   12.7125
407.946   12.7375
407.648   12.2625
407.354   12.8375
407.056   12.3
406.76   12.9375
406.463   13.1625
406.166   12.9625
405.87   12.4875
405.574   12.6125
405.277   12.6125
404.979   12.6875
404.682   12.8125
404.385   12.6875
404.09   12.525
403.793   12.1875
403.496   13.1375
403.199   12.6375
402.902   12.6375
402.606   12.1375
402.309   12.4875
402.012   12.5375
401.714   12.5875
401.418   12.2
401.121   12.475
400.825   12.275
400.527   11.75
400.229   12.6125
399.933   12.6125
399.636   12.525
399.339   12.3375
399.043   12.6
398.745   12.325
398.447   12.3125
398.149   12.4
397.854   12.4375
397.558   12.0375
397.26   12.5875
396.963   12.3125
396.665   12.25
396.367   12.25
396.07   11.95
395.773   12.425
395.477   12.7875
395.18   12.55
394.882   12.25
394.584   12.7
394.287   12.625
393.99   12.675
393.692   12.325
393.396   12.6875
393.099   12.9375
392.8   12.575
392.503   12.375
392.205   13.1625
391.907   12.6625
391.608   13.0125
391.313   12.9375
391.017   12.575
390.718   12.95
390.421   13.175
390.123   13.2125
389.825   13.1125
389.526   13.325
389.23   13.7375
388.934   13.4375
388.636   13.575
388.338   13.5125
388.041   12.925
387.742   13.4125
387.444   13.3375
387.146   14.1
386.849   13.725
386.552   13.2375
386.253   13.525
385.956   13.25
385.658   13.55
385.361   13.7625
385.063   13.425
384.765   13.325
384.467   13.3
384.169   13.1625
383.871   13.3125
383.571   12.975
383.273   13.2125
382.977   13.6375
382.679   13.0875
382.381   12.4375
382.082   13.025
381.784   12.8375
381.487   12.7625
381.189   12.5375
380.892   12.3875
380.593   12.9375
380.294   13.0125
379.996   13.1625
379.698   13.2
379.399   12.475
379.102   13.0125
378.803   12.625
378.505   12.9875
378.206   12.625
377.908   13.3625
377.609   13.1625
377.312   12.5375
377.015   12.9375
376.716   12.525
376.418   12.5
376.12   12.9125
375.822   12.6625
375.523   11.8875
375.225   12.425
374.927   12.3
374.628   12.525
374.329   12.0375
374.03   12.35
373.732   12.3625
373.434   12.15
373.135   12.4625
372.836   11.975
372.538   11.675
372.239   11.4625
371.94   11.8125
371.642   11.5375
371.344   11.55
371.045   12.4
370.746   11.9625
370.447   11.75
370.149   11.7375
369.85   12.2625
369.551   11.5625
369.253   11.7625
368.954   11.8875
368.654   12.4625
368.356   11.7125
368.058   11.925
367.759   12
367.46   12.05
367.161   12
366.862   12.2
366.563   12.1625
366.265   12.4125
365.966   11.8125
365.667   12.8375
365.367   12.0125
365.069   12.7375
364.77   12.25
364.47   11.875
364.172   12.8375
363.873   12.35
363.574   12.35
363.273   12.4875
362.975   13.0875
362.677   12.1875
362.375   12.2875
362.077   12.8125
361.779   12.2625
361.479   12.5
361.18   12.425
360.881   12.2875
360.581   12.4625
360.282   11.975
359.983   12.425
359.685   11.7625
359.385   12.4
359.086   11.9
358.787   11.5125
358.488   12.075
358.187   12.05
357.886   12.1375
357.587   11.725
357.289   11.975
356.989   11.975
356.688   11.5375
356.39   12.125
356.091   11.7125
355.791   11.8875
355.492   11.875
355.193   11.7875
354.894   12.1375
354.594   12.075
354.294   12.05
353.995   12.0125
353.693   12.05
353.395   12.2
353.094   11.8625
352.795   12.1375
352.496   12.0875
352.197   11.5375
351.896   11.9
351.597   11.95
351.296   11.8375
350.997   11.7625
350.698   11.8875
350.396   11.6625
350.098   11.9125
349.798   11.8875
349.498   12.1125
349.198   12.0125
348.898   12.025
348.598   11.9875
348.298   11.925
347.997   12.3
347.698   11.65
347.398   11.7625
347.1   11.9625
346.799   12.35
346.499   12.1375
346.198   11.925
345.897   12.4125
345.598   12.375
345.298   12.1
344.998   12.4875
344.698   12.1125
344.397   12.675
344.096   12.3125
343.796   12.475
343.496   12.6875
343.197   12.4625
342.896   12
342.596   12.4375
342.296   12.525
341.995   12.0875
341.695   12.9625
341.395   12.425
341.095   12.8875
340.793   12.1375
340.493   12.4375
340.193   12.575
339.893   12.75
339.593   12.6125
339.291   12.8125
338.99   12.8375
338.69   12.9875
338.39   13.2875
338.09   13.15
337.79   13.275
337.488   12.8875
337.188   13.0625
336.887   13.1625
336.587   13.1
336.285   12.7625
335.985   13.4875
335.686   12.8125
335.384   13.6125
335.084   13.1375
334.781   13.475
334.481   12.9125
334.18   13.2
333.88   13.325
333.58   13.125
333.28   14.1875
332.977   12.8375
332.676   13.75
332.376   13.175
332.076   13.7875
331.776   13.9875
331.473   13.5125
331.172   13.9
330.872   13.7
330.57   13.925
330.269   13.875
329.969   13.525
329.668   13.725
329.367   13.7375
329.065   14.025
328.765   14.325
328.463   13.5625
328.163   14.1375
327.859   14.175
327.56   14.3
327.26   14.2875
326.958   13.875
326.654   14.325
326.354   13.9125
326.055   14.325
325.752   14.2125
325.452   14.1375
325.149   14.3
324.85   13.9625
324.549   14.4625
324.247   14.175
323.945   14.5875
323.644   14.975
323.343   14.825
323.04   15.05
322.74   14.7125
322.439   14.775
322.136   14.7625
321.834   14.85
321.534   15.2625
321.233   15.0875
320.932   15.15
320.63   15.05
320.328   15.425
320.026   15.0125
319.724   15.7125
319.424   15.3625
319.121   15.6625
318.818   15.6
318.518   15.5875
318.217   15.875
317.914   15.6625
317.613   16.3125
317.312   15.675
317.008   16.2125
316.707   16.15
316.406   16.175
316.104   16.875
315.802   16.075
315.501   17.0875
315.199   17.05
314.896   16.725
314.596   16.7875
314.293   16.4625
313.991   16.9125
313.689   17.375
313.388   17.6375
313.084   17.7
312.784   17.575
312.483   18.125
312.179   17.75
311.877   17.9875
311.575   19.0375
311.272   18.1625
310.972   18.3
310.669   18.95
310.367   19.2125
310.064   19.1625
309.763   19.7
309.46   19.05
309.159   19.8625
308.854   19.65
308.554   20.1125
308.252   20.975
307.95   21.4125
307.647   21.3625
307.344   21.55
307.042   22.3375
306.741   22.05
306.437   23.375
306.135   23.1875
305.834   22.375
305.529   23.4875
305.229   23.4125
304.925   23.5625
304.623   24.65
304.321   24.5125
304.019   24.4625
303.716   25
303.414   26.2625
303.11   27.275
302.808   27.9625
302.506   30.025
302.202   31.4
301.901   33.85
301.597   36.7
301.296   39.5125
300.992   43.8625
300.688   47.1375
300.387   53.5
300.083   57.7875
299.782   61.1125
299.479   65.125
299.176   67.075
298.874   67.05
298.569   66.9125
298.268   65.925
297.964   64.325
297.662   61.0625
297.361   57.3375
297.057   53.3625
296.754   48.575
296.449   44.325
296.147   40.5875
295.843   37.45
295.542   35.275
295.24   31.9625
294.936   31.15
294.633   30.0125
294.328   30.0625
294.027   29.4125
293.722   29.725
293.421   29.425
293.117   29.675
292.814   30.425
292.511   30.95
292.207   31.375
291.904   31.9875
291.601   32.9
291.298   33.6125
290.995   34.85
290.692   36.0625
290.389   38.425
290.085   39.9
289.782   40.9625
289.479   44.1125
289.174   47.225
288.872   50.8125
288.568   54.8125
288.266   58.5125
287.961   63.4625
287.657   70.0875
287.354   76.7375
287.051   85.1375
286.749   93.6375
286.443   100.237
286.142   109.3
285.837   118.488
285.534   124.775
285.229   129.55
284.926   134.113
284.622   135.4
284.32   133.775
284.015   128.363
283.711   125.438
283.408   117.437
283.104   109.725
282.8   100.875
282.498   94.7
282.192   84.5625
281.891   78.4125
281.586   69.8375
281.281   63.825
280.979   58.525
280.674   54.2875
280.37   49.5625
280.066   45.7
279.763   43.3125
279.459   39.675
279.155   38.1125
278.85   36.6
278.548   34.2
278.243   33.7125
277.939   30.875
277.634   29.725
277.332   28.5625
277.026   28.5125
276.724   27.0875
276.419   26.5375
276.114   25.4
275.811   26.1375
275.507   25.1
275.203   24.7
274.897   24.3875
274.595   24.3
274.289   24
273.985   24.325
273.681   23.5375
273.379   23.7
273.073   23.7375
272.769   24.1375
272.465   23.475
272.159   23.6
271.856   23.9
271.551   24.0625
271.248   24.7375
270.942   24.8625
270.638   25.6
270.334   25.85
270.028   26.35
269.724   27.525
269.42   28.675
269.117   29.3125
268.812   30.4375
268.508   32.6875
268.203   33.2375
267.896   36.175
267.592   36.5375
267.289   39.3125
266.983   41.3125
266.681   42.75
266.374   44.2625
266.069   45.7125
265.765   46.0625
265.459   45.8125
265.156   45.5625
264.851   44.1375
264.548   41.5875
264.242   39.925
263.936   37.5875
263.633   35.475
263.327   32.9875
263.022   31.8625
262.718   29.5625
262.411   28.975
262.107   26.7625
261.803   26.425
261.496   25.6625
261.193   24.7125
260.888   23.4875
260.583   24.4
260.278   24.8625
259.973   23.575
259.669   23.65
259.363   22.9375
259.058   24
258.753   23.1375
258.447   23.2875
258.141   22.7
257.838   22.8125
257.532   23.15
257.226   23.4375
256.923   23.1
256.616   23.7375
256.312   23.4
256.007   24.5125
255.701   24.7125
255.396   25.075
255.091   24.875
254.784   24.9125
254.479   25.2875
254.175   24.9125
253.868   25.275
253.564   23.7125
253.259   24.3125
252.952   23.2125
252.646   22.3625
252.343   22.8625
252.036   21.4
251.731   21.2
251.426   20.5625
251.119   20.1125
250.812   20.65
250.51   19.75
250.203   19.9125
249.896   19.5625
249.593   19.4125
249.286   18.775
248.98   18.6125
248.675   19.15
248.368   19.1375
248.063   18.55
247.758   18.75
247.451   18.75
247.146   19.475
246.84   18.95
246.535   18.825
246.229   19.1625
245.923   18.7625
245.618   17.95
245.312   18.4
245.006   18.4875
244.699   18.6
244.395   18.5375
244.088   18.1125
243.782   17.6125
243.475   17.925
243.169   17.775
242.864   17.6375
242.558   17.4
242.251   17.675
241.946   17.725
241.64   16.9875
241.334   18.1875
241.026   17.3875
240.722   16.975
240.415   17.3875
240.108   17.05
239.801   17.1875
239.496   17.85
239.19   17
238.884   17.525
238.576   17.1375
238.271   16.7
237.966   17.4
237.659   17.125
237.352   16.65
237.048   16.7625
236.741   16.8375
236.434   17.3625
236.127   18.25
235.821   17.2625
235.514   16.9375
235.208   16.7875
234.901   17.4
234.595   16.925
234.288   17.6
233.982   17.5875
233.675   17.1
233.368   18.125
233.061   18.0625
232.756   18.7
232.449   18.7875
232.143   18.25
231.835   19.1875
231.53   18.55
231.223   18.15
230.916   18.525
230.609   18.925
230.302   18.45
229.994   18.9875
229.688   18.6
229.383   18.425
229.075   17.9375
228.769   18.2125
228.462   17.6
228.156   17.525
227.85   17.45
227.542   17.6
227.234   17.9375
226.927   17.275
226.619   16.8125
226.312   17.1125
226.007   16.8375
225.699   16.975
225.392   17.025
225.084   17.425
224.778   16.7
224.471   17.2125
224.164   17.45
223.857   17.0625
223.55   17.3125
223.241   17.125
222.934   18.025
222.629   17.125
222.321   16.925
222.015   17.3125
221.707   17.8875
221.399   17.375
221.091   17.35
220.783   17.6125
220.476   17.325
220.172   17.0375
219.863   16.8375
219.556   17.6
219.248   17.4875
218.94   16.9625
218.634   17.3875
218.326   16.975
218.018   17.1875
217.712   17.925
217.404   16.875
217.097   17.3625
216.789   17.55
216.48   17.5625
216.173   17.35
215.865   16.8125
215.558   16.9
215.25   16.7125
214.944   17.0875
214.637   16.875
214.328   17.5625
214.021   17.0375
213.712   17.025
213.404   16.4875
213.098   16.6
212.789   17.5625
212.481   17.6
212.173   17.2375
211.867   16.95
211.56   17.8875
211.251   17.575
210.943   17.6875
210.635   17.05
210.327   17.9125
210.019   17.6125
209.712   17.4
209.403   17.625
209.095   17.6625
208.787   18.025
208.479   18.25
208.173   17.9375
207.864   18.5875
207.556   18.1625
207.248   18.85
206.939   18.6625
206.631   19
206.323   19.05
206.015   19.3375
205.707   19.4625
205.397   20.0625
205.09   20.275
204.781   21.125
204.474   20.9
204.167   21.7125
203.857   21.9875
203.549   22.1375
203.24   22.6625
202.934   23.6
202.626   24.525
202.314   24.4
202.009   25.9
201.7   26.225
201.392   27.5125
201.083   26.875
200.774   26.75
200.466   24.9
200.157   21.275
199.849   18.55
199.54   14.9625
199.231   11.3375
198.923   8.4625
198.614   5.6125
198.306   4.0375
197.997   2.7875
197.688   2.1375
197.38   1.6875
197.071   1.3625
196.763   1.275
196.453   1.0375
196.145   0.7625
195.836   0.6625
195.527   0.6375
195.219   0.7625
194.91   0.7125
194.601   0.725
194.292   0.725
