XY
Wavenumber     
Intensity      
"Start : "194.292
"Stop  : "501.097
S25424m.m3d

501.097   0.225
500.805   0.325
500.515   0.2
500.224   0.125
499.934   0.225
499.642   0.575
499.351   0.6
499.059   0.65
498.769   0.35
498.477   0.25
498.184   0.175
497.893   0.55
497.603   0.55
497.312   0.45
497.019   0.375
496.727   0.675
496.437   0.55
496.145   0.225
495.855   0.425
495.562   0.025
495.271   0.25
494.979   0.275
494.688   0.65
494.395   0.45
494.104   0.55
493.812   0.35
493.521   0.325
493.228   0.65
492.938   0.75
492.646   0.35
492.354   0.275
492.062   0.05
491.771   0.75
491.479   0.45
491.188   0.5
490.896   0.175
490.604   0.45
490.312   0.625
490.019   0.65
489.729   0.475
489.437   0.725
489.145   0.75
488.852   0.625
488.562   0.925
488.269   0.625
487.976   0.875
487.685   1.6
487.394   2.9
487.102   5.725
486.809   10.75
486.517   16.775
486.226   22.975
485.933   31.25
485.641   36.475
485.351   44.925
485.058   48.425
484.765   52.2
484.473   53.65
484.179   55.125
483.888   55.95
483.597   54.75
483.304   54.9
483.011   56.975
482.72   56.9
482.427   55.325
482.135   55.9
481.843   56.025
481.55   57.425
481.257   56.75
480.966   57
480.674   55.3
480.381   57.05
480.089   56.45
479.795   57.275
479.503   55.775
479.212   57.625
478.919   58.35
478.626   56.825
478.334   57.075
478.04   57.825
477.749   56.875
477.457   58.1
477.164   58.675
476.871   57.925
476.577   57.2
476.284   57.525
475.993   57.6
475.699   57.95
475.407   58.575
475.116   57.775
474.823   58.125
474.53   57.1
474.238   58.125
473.943   58.275
473.651   58.85
473.357   57.5
473.066   59.925
472.773   59.225
472.48   58.75
472.188   58.225
471.895   59.925
471.601   59.725
471.31   59.075
471.017   58.85
470.723   58.325
470.43   58.85
470.137   57.45
469.845   57.375
469.552   59.65
469.259   58.85
468.966   59.2
468.672   58.175
468.379   58.125
468.086   58.325
467.793   58.45
467.498   57.375
467.206   59.6
466.914   58.575
466.619   57.55
466.327   59.375
466.033   60.375
465.741   57.825
465.447   57.9
465.154   57.8
464.861   59.525
464.567   59.225
464.274   58.25
463.98   58.275
463.688   59.5
463.395   59.975
463.102   60.05
462.808   60.075
462.514   60.2
462.222   58.8
461.927   59.5
461.634   59.55
461.339   60.025
461.048   60.05
460.752   59.675
460.46   60.35
460.166   58.55
459.873   58.6
459.58   60
459.285   59.775
458.991   59.8
458.697   60.95
458.406   59.65
458.112   59.125
457.818   60.075
457.524   60.225
457.23   58.375
456.937   59.3
456.643   58.15
456.349   60.4
456.056   59.825
455.762   59.9
455.468   60.425
455.174   60.925
454.88   59.7
454.585   60.375
454.292   61.6
453.998   60.525
453.704   60.225
453.41   60.55
453.116   61.025
452.823   60.8
452.529   61.05
452.235   59
451.941   60.5
451.646   59.825
451.354   60.5
451.058   59.15
450.765   59.1
450.47   59.1
450.177   60.875
449.883   58.95
449.588   58.85
449.293   59.125
449.001   59.5
448.705   60.125
448.41   59.95
448.117   59.65
447.823   58.7
447.529   59.475
447.234   60.05
446.94   60.075
446.645   58.025
446.352   59.175
446.058   59.3
445.764   58.475
445.468   58.4
445.175   59.05
444.879   58.3
444.585   58.95
444.29   60.4
443.996   58.225
443.703   59.65
443.408   60.825
443.114   59.375
442.817   59.325
442.524   59.85
442.229   60.7
441.933   61.225
441.641   58.675
441.345   60.3
441.052   59.475
440.756   58.875
440.462   58.5
440.167   59.225
439.871   59.725
439.578   58.825
439.282   60.575
438.988   60.175
438.693   59.55
438.397   58.35
438.104   60.325
437.808   60.675
437.515   58.925
437.219   60.1
436.924   60.65
436.63   61.325
436.334   61.95
436.04   60.55
435.744   60.7
435.449   61.15
435.155   62.1
434.859   62.15
434.566   63.675
434.27   62.05
433.974   61.675
433.679   63.425
433.384   62.45
433.092   61.925
432.795   62.375
432.499   63.25
432.204   62.275
431.909   61.45
431.613   61.775
431.319   60.325
431.023   61.925
430.729   60.325
430.434   61.225
430.138   61.65
429.843   60.725
429.548   61.35
429.251   59.6
428.957   59.25
428.661   61.1
428.365   60.1
428.07   58.225
427.775   59.825
427.479   60.5
427.186   59.825
426.889   59.575
426.593   60.15
426.299   61.275
426.003   61.375
425.706   59.7
425.411   60.7
425.116   61.025
424.821   60.45
424.526   60
424.229   62.075
423.933   59.85
423.639   61.575
423.343   61.2
423.046   60.75
422.751   60.725
422.456   60.9
422.159   60.4
421.862   60.275
421.568   61
421.272   60.2
420.976   59.425
420.682   59.45
420.385   60.2
420.089   60.075
419.794   59.625
419.498   59.05
419.201   60.4
418.904   59.6
418.61   59.525
418.314   61.05
418.017   60.65
417.722   59.625
417.427   61.075
417.129   60.75
416.833   60.925
416.537   60.7
416.242   61.325
415.945   60.65
415.649   60.275
415.354   61.375
415.058   59.825
414.761   61.625
414.466   58.55
414.17   58.675
413.872   62.25
413.578   60.7
413.28   59.75
412.984   59.775
412.688   61.75
412.391   60.775
412.097   61.3
411.8   61.2
411.503   59.475
411.207   60.025
410.91   61.625
410.614   61.075
410.316   60.325
410.02   60.6
409.725   61.55
409.429   60.65
409.132   60.375
408.835   59.5
408.538   62.125
408.243   62.3
407.946   61.95
407.648   60.775
407.354   61.775
407.056   62.125
406.76   60.925
406.463   61.7
406.166   62.125
405.87   61.15
405.574   62.65
405.277   62.65
404.979   63.25
404.682   61.35
404.385   61.05
404.09   62.075
403.793   61.5
403.496   60.875
403.199   60.25
402.902   60.075
402.606   60.45
402.309   59.875
402.012   60.75
401.714   60
401.418   60.55
401.121   59.825
400.825   59.975
400.527   61.075
400.229   60.3
399.933   59.925
399.636   59.325
399.339   59.4
399.043   60.575
398.745   61
398.447   59.825
398.149   59.325
397.854   60.85
397.558   59.925
397.26   60.2
396.963   59.85
396.665   59.15
396.367   60.35
396.07   60.775
395.773   59.8
395.477   59.925
395.18   59.8
394.882   59.175
394.584   60.4
394.287   59.775
393.99   60.15
393.692   60.75
393.396   59.975
393.099   62.025
392.8   61.075
392.503   62.325
392.205   61.95
391.907   62.1
391.608   61.375
391.313   63.225
391.017   61.3
390.718   62.275
390.421   63
390.123   61.725
389.825   63.875
389.526   62.875
389.23   61.15
388.934   63.975
388.636   62.95
388.338   64.25
388.041   63.275
387.742   63.475
387.444   65.075
387.146   63.65
386.849   64.5
386.552   63.25
386.253   62.825
385.956   65.225
385.658   63.525
385.361   63.1
385.063   63.025
384.765   63.65
384.467   62.875
384.169   61.5
383.871   63.15
383.571   63.4
383.273   63.375
382.977   62.875
382.679   62.15
382.381   63.2
382.082   62.725
381.784   62.6
381.487   63.15
381.189   64.275
380.892   63.875
380.593   63.625
380.294   63.85
379.996   64.175
379.698   63.45
379.399   65.75
379.102   65.4
378.803   65.55
378.505   67.15
378.206   66.475
377.908   69.85
377.609   70.55
377.312   72.025
377.015   70.525
376.716   70.075
376.418   69.6
376.12   69.525
375.822   68.475
375.523   68.325
375.225   68.175
374.927   68.375
374.628   66.225
374.329   65.175
374.03   65.275
373.732   62.55
373.434   63.1
373.135   61.925
372.836   62.225
372.538   59.3
372.239   59.15
371.94   59.8
371.642   59.625
371.344   59.625
371.045   58.975
370.746   59.625
370.447   60.55
370.149   58.575
369.85   60.025
369.551   60.1
369.253   59.625
368.954   59.5
368.654   58.65
368.356   58.85
368.058   60.75
367.759   58.55
367.46   59.575
367.161   58.55
366.862   60.85
366.563   59.9
366.265   59.975
365.966   59.8
365.667   60.125
365.367   59.7
365.069   59.825
364.77   60.075
364.47   59.1
364.172   60.625
363.873   60.925
363.574   60.775
363.273   60.125
362.975   59.4
362.677   60.075
362.375   58.475
362.077   60.35
361.779   61.125
361.479   59.3
361.18   60
360.881   59.525
360.581   59
360.282   58.1
359.983   59.925
359.685   58.525
359.385   58.2
359.086   57.625
358.787   57.45
358.488   58.8
358.187   59.65
357.886   58.45
357.587   59.15
357.289   60.025
356.989   58.15
356.688   59.55
356.39   59.35
356.091   59.25
355.791   58.975
355.492   57.8
355.193   58.55
354.894   60.45
354.594   60.15
354.294   59.6
353.995   60.075
353.693   60.525
353.395   58.65
353.094   59.125
352.795   60.35
352.496   61.025
352.197   60.025
351.896   59.975
351.597   59.35
351.296   60.025
350.997   60
350.698   60.475
350.396   58.625
350.098   59.25
349.798   59.975
349.498   58.2
349.198   61.625
348.898   60.7
348.598   59.1
348.298   61.225
347.997   61.4
347.698   58.675
347.398   59.775
347.1   59.375
346.799   61.4
346.499   60.6
346.198   62.125
345.897   61.05
345.598   60.625
345.298   61.925
344.998   61.55
344.698   60.225
344.397   60.925
344.096   62.675
343.796   60.325
343.496   61.375
343.197   62.55
342.896   60.2
342.596   62.275
342.296   62.575
341.995   61.45
341.695   61.8
341.395   61.65
341.095   61.775
340.793   61.5
340.493   62.85
340.193   63.65
339.893   62.8
339.593   63.275
339.291   61.925
338.99   62.55
338.69   62.975
338.39   64.125
338.09   64.375
337.79   63.9
337.488   65.05
337.188   64.95
336.887   64.55
336.587   64.45
336.285   64.025
335.985   65.85
335.686   65.45
335.384   64.575
335.084   64.5
334.781   64.7
334.481   65.675
334.18   66.3
333.88   64.625
333.58   64.775
333.28   67.525
332.977   64.25
332.676   65.875
332.376   67.425
332.076   66.2
331.776   66.375
331.473   66.825
331.172   67.2
330.872   68
330.57   67.9
330.269   67.075
329.969   67.825
329.668   67.15
329.367   67.2
329.065   67.225
328.765   68.225
328.463   68.05
328.163   68.175
327.859   69.45
327.56   69.15
327.26   69.375
326.958   68.075
326.654   69.425
326.354   69.675
326.055   69.7
325.752   68.675
325.452   69
325.149   70.2
324.85   70.575
324.549   69.775
324.247   71.7
323.945   71.025
323.644   71.45
323.343   69.975
323.04   72.95
322.74   72.075
322.439   71.8
322.136   72.725
321.834   71.95
321.534   72.775
321.233   72.65
320.932   71.275
320.63   76.025
320.328   73.2
320.026   76
319.724   75.2
319.424   76.425
319.121   74
318.818   75.4
318.518   75.525
318.217   75.425
317.914   74.95
317.613   76.45
317.312   77.2
317.008   79.675
316.707   77.65
316.406   78.45
316.104   79.975
315.802   79.475
315.501   80.45
315.199   80.925
314.896   80.8
314.596   82.875
314.293   83.625
313.991   82
313.689   82.95
313.388   83.975
313.084   83.775
312.784   85.85
312.483   83.575
312.179   86.25
311.877   85.525
311.575   86.675
311.272   86.75
310.972   89.625
310.669   87.475
310.367   89.65
310.064   91.3
309.763   91.55
309.46   92.925
309.159   93.425
308.854   94.325
308.554   94.175
308.252   96.575
307.95   100.2
307.647   100.875
307.344   103.475
307.042   101.475
306.741   107
306.437   105.125
306.135   106.675
305.834   105.55
305.529   109.4
305.229   111.075
304.925   111.75
304.623   113.75
304.321   115.725
304.019   119.25
303.716   124
303.414   131.525
303.11   139.125
302.808   144.95
302.506   156.45
302.202   174.175
301.901   192.725
301.597   217.7
301.296   255.975
300.992   295.8
300.688   342.35
300.387   377.925
300.083   394.225
299.782   395.1
299.479   384.8
299.176   374.9
298.874   365.475
298.569   353.1
298.268   337.55
297.964   299.9
297.662   265.675
297.361   227.25
297.057   196.25
296.754   172.225
296.449   159.6
296.147   144.175
295.843   134.875
295.542   132.175
295.24   126.05
294.936   123.175
294.633   121.5
294.328   123.975
294.027   121.8
293.722   118.95
293.421   122.6
293.117   124.05
292.814   124.95
292.511   127.35
292.207   129.85
291.904   131.575
291.601   134.45
291.298   137.975
290.995   137.95
290.692   142.925
290.389   148.925
290.085   153.725
289.782   162.1
289.479   172.125
289.174   175.85
288.872   193.5
288.568   199.875
288.266   218.3
287.961   238.25
287.657   259.325
287.354   287.5
287.051   312.65
286.749   344.95
286.443   375.475
286.142   402.275
285.837   420.5
285.534   440.5
285.229   451.325
284.926   453.425
284.622   451.2
284.32   431.4
284.015   409.7
283.711   392.25
283.408   360.8
283.104   332.025
282.8   303.575
282.498   275.475
282.192   251.15
281.891   229.075
281.586   211.475
281.281   191.6
280.979   178.4
280.674   164.075
280.37   156.475
280.066   144.575
279.763   137.775
279.459   129.8
279.155   124.875
278.85   120.2
278.548   113.85
278.243   112.575
277.939   105.925
277.634   103.725
277.332   103.7
277.026   101.4
276.724   99.875
276.419   98.55
276.114   97.85
275.811   97.15
275.507   96
275.203   96.975
274.897   95.45
274.595   94.05
274.289   94.975
273.985   92.425
273.681   96.7
273.379   93.575
273.073   93.425
272.769   93.2
272.465   94.3
272.159   92.375
271.856   94.45
271.551   94.75
271.248   97.55
270.942   99.65
270.638   99.3
270.334   102.05
270.028   101.875
269.724   107.4
269.42   109.625
269.117   112.8
268.812   115.075
268.508   122.65
268.203   125.85
267.896   131.05
267.592   134.75
267.289   140.375
266.983   150.15
266.681   154.225
266.374   161
266.069   162.725
265.765   166.025
265.459   165.35
265.156   166.825
264.851   161.625
264.548   157.15
264.242   149.925
263.936   142.425
263.633   134.7
263.327   127.25
263.022   123.975
262.718   118.9
262.411   112.3
262.107   107.35
261.803   102.25
261.496   100.5
261.193   99.75
260.888   96.325
260.583   96.825
260.278   95.3
259.973   95.25
259.669   94.875
259.363   93.7
259.058   95.45
258.753   93.05
258.447   92.575
258.141   93.725
257.838   92.975
257.532   93.175
257.226   96.1
256.923   96.55
256.616   97.025
256.312   97.75
256.007   101.025
255.701   103.85
255.396   103.525
255.091   105.375
254.784   106.225
254.479   105.425
254.175   106.675
253.868   105.075
253.564   100.25
253.259   100.6
252.952   98.625
252.646   94
252.343   93.45
252.036   91.625
251.731   89.9
251.426   86.3
251.119   84.45
250.812   83.725
250.51   82.825
250.203   81.775
249.896   81.625
249.593   78.5
249.286   79.975
248.98   80.075
248.675   79.75
248.368   78.8
248.063   76.9
247.758   76.65
247.451   76.475
247.146   78.525
246.84   78
246.535   78.5
246.229   78.45
245.923   77.6
245.618   75.675
245.312   77.075
245.006   75.825
244.699   75.375
244.395   75.2
244.088   74.35
243.782   74.1
243.475   71.925
243.169   75.375
242.864   73.175
242.558   72.225
242.251   72.05
241.946   74.075
241.64   73.6
241.334   72.8
241.026   71.8
240.722   72.225
240.415   72
240.108   71.45
239.801   70.225
239.496   73.9
239.19   72.125
238.884   71
238.576   70.95
238.271   71.7
237.966   71.975
237.659   72.6
237.352   71.875
237.048   71.375
236.741   71.2
236.434   70.75
236.127   70.05
235.821   71.925
235.514   71.55
235.208   70.05
234.901   71.3
234.595   70.85
234.288   72.5
233.982   72.7
233.675   71
233.368   72
233.061   73.075
232.756   73.675
232.449   73
232.143   71.25
231.835   73.325
231.53   72.3
231.223   73.025
230.916   75.15
230.609   73.15
230.302   75.6
229.994   74.225
229.688   73.575
229.383   74.1
229.075   74.975
228.769   72.25
228.462   74.275
228.156   72.325
227.85   71.425
227.542   72.8
227.234   74
226.927   71.025
226.619   70.7
226.312   72.275
226.007   70.6
225.699   71.075
225.392   71.35
225.084   71.45
224.778   71.3
224.471   69.975
224.164   72.425
223.857   71.05
223.55   70.4
223.241   72.925
222.934   72.2
222.629   72.8
222.321   72.175
222.015   72.3
221.707   72.025
221.399   71.575
221.091   73.1
220.783   73.05
220.476   72.075
220.172   71.1
219.863   70.625
219.556   70.675
219.248   72.5
218.94   71.425
218.634   70.75
218.326   72.175
218.018   72.1
217.712   72.725
217.404   71.7
217.097   70.55
216.789   72.6
216.48   73.175
216.173   71.15
215.865   72.075
215.558   73.1
215.25   73.15
214.944   72.475
214.637   73.2
214.328   72.825
214.021   71.8
213.712   69.75
213.404   72
213.098   73.4
212.789   73.125
212.481   72.85
212.173   72.275
211.867   73.25
211.56   73.8
211.251   73.475
210.943   73.5
210.635   74.65
210.327   74.775
210.019   74.7
209.712   74.35
209.403   74.875
209.095   76
208.787   78.275
208.479   77.825
208.173   75.825
207.864   78.275
207.556   77.25
207.248   78.275
206.939   80.7
206.631   81.025
206.323   80.9
206.015   81.775
205.707   83.8
205.397   82.525
205.09   84.8
204.781   86.925
204.474   87.575
204.167   87.725
203.857   89.425
203.549   92.725
203.24   91.7
202.934   93.5
202.626   95.125
202.314   93.85
202.009   95.125
201.7   96.25
201.392   98.95
201.083   95.55
200.774   92.325
200.466   84.2
200.157   73.5
199.849   60.65
199.54   49.9
199.231   34.6
198.923   24.625
198.614   16.175
198.306   11.025
197.997   8.3
197.688   5.525
197.38   4.75
197.071   3.875
196.763   2.825
196.453   2.65
196.145   2.575
195.836   2.25
195.527   1.625
195.219   1.9
194.91   1.95
194.601   1.875
194.292   1.875
