XY
Wavenumber     
Intensity      
"Start : "1423.93
"Stop  : "1672.31
S25424h.m3d

1672.31   0.725
1672.08   0.675
1671.84   0.5
1671.61   0.675
1671.37   0.375
1671.13   0.825
1670.9   0.925
1670.66   0.65
1670.43   0.85
1670.19   0.5
1669.95   0.775
1669.72   0.975
1669.48   1
1669.24   0.975
1669.01   0.725
1668.77   0.575
1668.54   0.375
1668.3   0.725
1668.06   0.525
1667.83   0.575
1667.59   0.625
1667.35   0.525
1667.12   0.4
1666.88   0.625
1666.65   0.775
1666.41   0.525
1666.17   0.825
1665.94   0.6
1665.7   0.7
1665.46   0.825
1665.23   0.675
1664.99   0.8
1664.76   0.55
1664.52   1
1664.28   0.875
1664.04   0.7
1663.81   0.85
1663.57   1.2
1663.34   0.675
1663.1   0.7
1662.86   0.975
1662.63   1.15
1662.39   0.875
1662.15   0.9
1661.92   0.925
1661.68   0.575
1661.44   1.075
1661.21   1.275
1660.97   1.175
1660.73   1
1660.5   0.85
1660.26   1
1660.02   1.05
1659.79   1.1
1659.55   1.275
1659.31   1.525
1659.08   1.2
1658.84   1.675
1658.6   1.45
1658.37   1.2
1658.13   1.275
1657.89   1.575
1657.66   1.55
1657.42   2.225
1657.18   4.05
1656.95   7.275
1656.71   14.75
1656.47   23.275
1656.24   35.175
1656   49.15
1655.76   61
1655.53   70.425
1655.29   78.4
1655.05   84.725
1654.81   85.925
1654.58   90.125
1654.34   90.525
1654.1   90.175
1653.87   90.35
1653.63   92.25
1653.39   92.45
1653.15   92.8
1652.92   91.425
1652.68   91.375
1652.44   89.725
1652.21   93.35
1651.97   91.925
1651.73   90.025
1651.5   92.75
1651.26   90.45
1651.02   91.225
1650.78   92.15
1650.55   91.425
1650.31   91.6
1650.07   92.4
1649.83   92.325
1649.6   90.25
1649.36   91.7
1649.12   92.2
1648.89   91.5
1648.65   90.75
1648.41   91.525
1648.17   90.7
1647.94   91.825
1647.7   91.75
1647.46   90.55
1647.23   91.775
1646.99   92.575
1646.75   92
1646.51   92.075
1646.27   90.7
1646.04   92.45
1645.8   91.825
1645.56   90.1
1645.33   91.25
1645.09   92.15
1644.85   91.05
1644.61   90.9
1644.38   93
1644.14   92.4
1643.9   91.5
1643.66   90.525
1643.43   91.075
1643.19   92.075
1642.95   92.45
1642.71   93.05
1642.47   93.325
1642.24   92.15
1642   91.725
1641.76   91.675
1641.52   92
1641.29   91.925
1641.05   92.275
1640.81   94.275
1640.57   92.025
1640.33   93.95
1640.1   93.55
1639.86   94.325
1639.62   93.65
1639.38   93.55
1639.15   95.15
1638.91   93.075
1638.67   95.025
1638.43   94.675
1638.2   94.05
1637.96   94.175
1637.72   93.7
1637.48   95.45
1637.24   96.5
1637   93.25
1636.77   95.175
1636.53   95.925
1636.29   96.375
1636.05   96.7
1635.82   95.075
1635.58   96.475
1635.34   96.375
1635.1   96.65
1634.86   96.4
1634.63   96
1634.39   97.45
1634.15   96.875
1633.91   96.1
1633.67   97.75
1633.44   96.875
1633.2   98.8
1632.96   97.8
1632.72   99
1632.48   97.575
1632.24   98.975
1632   96.5
1631.77   98.6
1631.53   97.675
1631.29   99.275
1631.05   101.075
1630.81   99.625
1630.58   100.325
1630.34   101.85
1630.1   99.375
1629.86   100.575
1629.62   100.025
1629.39   98.825
1629.15   100.125
1628.91   100.95
1628.67   103.2
1628.43   102.8
1628.19   104.475
1627.95   102.875
1627.72   100.825
1627.48   103.45
1627.24   101.6
1627   103.75
1626.76   103.475
1626.52   102.4
1626.28   106.175
1626.05   102.3
1625.81   104.575
1625.57   105.875
1625.33   106.05
1625.09   105.2
1624.85   106.05
1624.61   106.25
1624.38   106.4
1624.14   109.325
1623.9   107.725
1623.66   109.775
1623.42   107.225
1623.18   110.725
1622.94   106.425
1622.71   108.65
1622.47   110.775
1622.23   111.075
1621.99   110.5
1621.75   111.275
1621.51   112.275
1621.27   113.975
1621.03   111.825
1620.79   112.9
1620.55   110.425
1620.32   114.65
1620.08   113.175
1619.84   116.375
1619.6   114.6
1619.36   115.525
1619.12   116.175
1618.88   115.425
1618.64   118.3
1618.41   117.55
1618.17   118.25
1617.93   118.225
1617.69   120.15
1617.45   120.125
1617.21   119.025
1616.97   121.4
1616.73   121.3
1616.49   123.45
1616.25   123.65
1616.02   123.225
1615.78   125.4
1615.54   123.15
1615.3   126.2
1615.06   126.35
1614.82   127.275
1614.58   128.225
1614.34   128.575
1614.1   129.375
1613.86   131.425
1613.62   133
1613.38   129.825
1613.14   133.475
1612.9   134.225
1612.67   137.025
1612.43   134.975
1612.19   135.3
1611.95   137
1611.71   138.475
1611.47   137.05
1611.23   140.925
1610.99   140.225
1610.75   143.85
1610.51   144.575
1610.27   147.4
1610.03   147.65
1609.79   146.45
1609.55   150.675
1609.32   151.375
1609.08   152.15
1608.84   155.5
1608.6   154.9
1608.36   156.725
1608.12   160.025
1607.88   160.95
1607.64   161.25
1607.4   165.125
1607.16   166.95
1606.92   167.275
1606.68   171.425
1606.44   170.775
1606.2   176.625
1605.96   174.6
1605.72   177.725
1605.48   181.275
1605.24   184
1605   187.225
1604.76   191.75
1604.52   190.575
1604.28   195.95
1604.04   199.9
1603.8   204.225
1603.56   205.325
1603.32   208.75
1603.08   206.8
1602.85   217.2
1602.6   218.5
1602.36   224.4
1602.12   227.2
1601.88   232.125
1601.64   239.475
1601.41   245.65
1601.17   249.25
1600.92   255.45
1600.69   266.35
1600.45   266.05
1600.21   276.375
1599.96   285.9
1599.72   289.35
1599.48   299.125
1599.25   309.8
1599.01   318.675
1598.76   326.9
1598.53   339.325
1598.29   348.475
1598.04   360.15
1597.8   373.225
1597.56   391.2
1597.32   404.7
1597.08   421.5
1596.84   444.825
1596.6   460.975
1596.36   483.65
1596.12   502.95
1595.88   530.825
1595.64   561.45
1595.4   591.25
1595.16   619.5
1594.92   655.55
1594.68   690.275
1594.44   734.475
1594.2   767.55
1593.96   814.975
1593.72   873.475
1593.48   917.825
1593.24   978.075
1593   1038.65
1592.76   1084.1
1592.52   1158.05
1592.28   1210.57
1592.04   1279.1
1591.8   1329.9
1591.56   1392.83
1591.32   1427.3
1591.08   1477.5
1590.83   1507.32
1590.6   1520.05
1590.35   1529.95
1590.11   1524.47
1589.87   1515.07
1589.63   1497.38
1589.39   1462.7
1589.15   1428.97
1588.91   1377.28
1588.67   1337.15
1588.43   1284.97
1588.19   1229.95
1587.95   1164.88
1587.71   1116.4
1587.47   1065.07
1587.23   1013.85
1586.99   958.225
1586.75   908.35
1586.5   866.775
1586.26   824.525
1586.02   788.55
1585.78   745.075
1585.54   710.025
1585.3   677.25
1585.06   647.375
1584.82   614.75
1584.58   589.525
1584.34   565.525
1584.1   535.525
1583.86   510.625
1583.62   493.55
1583.37   471.325
1583.13   451.475
1582.89   433.55
1582.65   413.35
1582.41   401.05
1582.17   385.875
1581.93   376.1
1581.69   362.85
1581.45   351.75
1581.21   340.475
1580.96   329.875
1580.72   322.9
1580.48   310.8
1580.24   303.1
1580   296.075
1579.76   282.475
1579.52   278.975
1579.28   273.45
1579.04   269.825
1578.79   261.025
1578.55   255.2
1578.31   249.825
1578.07   244.975
1577.83   237.8
1577.59   233.575
1577.35   227.925
1577.11   224.55
1576.86   220.225
1576.62   217.85
1576.38   211.8
1576.14   206.775
1575.9   202.825
1575.66   199.125
1575.42   197.075
1575.17   194
1574.93   190.225
1574.69   188.6
1574.45   184.625
1574.21   184.425
1573.97   180.85
1573.73   177.975
1573.49   176.225
1573.24   174
1573   173.05
1572.76   168.6
1572.52   168.325
1572.28   166.425
1572.04   164.35
1571.79   163.025
1571.55   160.1
1571.31   163.05
1571.07   157.775
1570.83   154.625
1570.59   157.85
1570.35   156.25
1570.1   153.45
1569.86   153.05
1569.62   152
1569.38   150.575
1569.14   150.425
1568.89   151.6
1568.65   151.175
1568.41   148.775
1568.17   146.55
1567.93   147.975
1567.69   146.3
1567.45   142.775
1567.2   145.375
1566.96   142.925
1566.72   143.625
1566.48   141.85
1566.24   141.125
1565.99   143.475
1565.75   141.5
1565.51   143.925
1565.27   139.925
1565.03   140.25
1564.78   139.35
1564.54   139.525
1564.3   137.35
1564.06   140.1
1563.82   139.35
1563.57   140.525
1563.33   140.2
1563.09   137.8
1562.85   138.125
1562.61   139.15
1562.36   137.575
1562.12   140.05
1561.88   140.575
1561.64   139.45
1561.4   140.15
1561.15   138.25
1560.91   139.25
1560.67   140.875
1560.43   141.3
1560.19   138.925
1559.94   139.8
1559.7   143.65
1559.46   139.425
1559.22   142.375
1558.97   141.675
1558.73   143.05
1558.49   141.5
1558.25   142.225
1558   141.45
1557.76   141.4
1557.52   140.95
1557.28   142.15
1557.04   143.7
1556.79   142
1556.55   142.725
1556.31   144.9
1556.06   143.4
1555.82   145.3
1555.58   145.5
1555.34   144.15
1555.1   145.875
1554.85   142.85
1554.61   143
1554.37   141.55
1554.13   143.725
1553.88   143.8
1553.64   144.675
1553.4   144.425
1553.16   143.9
1552.91   145.275
1552.67   145.3
1552.43   149.175
1552.18   149.075
1551.94   149.375
1551.7   149.575
1551.46   150.675
1551.21   149.375
1550.97   151.425
1550.73   153.175
1550.49   153.375
1550.24   152.85
1550   152.35
1549.76   154.9
1549.51   154.725
1549.27   151.375
1549.03   148.65
1548.79   151.675
1548.54   147.525
1548.3   147.525
1548.06   144.175
1547.81   143.5
1547.57   140.375
1547.33   141.875
1547.09   140.225
1546.84   139.75
1546.6   136.725
1546.36   136.45
1546.12   139.225
1545.87   138.05
1545.63   136.25
1545.39   139.525
1545.14   139.325
1544.9   140.275
1544.66   139.425
1544.41   144.175
1544.17   147.075
1543.93   147.425
1543.68   148.3
1543.44   151.175
1543.2   153.725
1542.96   156.85
1542.71   161.075
1542.47   163.125
1542.23   163.325
1541.98   166
1541.74   167.425
1541.5   163.25
1541.25   165.6
1541.01   160.425
1540.77   161.25
1540.52   156.075
1540.28   153.275
1540.04   149.375
1539.79   145.925
1539.55   145.075
1539.31   142.625
1539.06   136
1538.82   132.325
1538.58   131.725
1538.33   129.2
1538.09   128.725
1537.85   123.1
1537.6   121.825
1537.36   120.675
1537.12   120.55
1536.87   117.1
1536.63   115.175
1536.38   115.675
1536.14   113.625
1535.9   110.25
1535.65   113.45
1535.41   109.65
1535.17   110.95
1534.92   111.1
1534.68   109.9
1534.44   109.975
1534.19   107.65
1533.95   108.2
1533.71   105.9
1533.46   105.025
1533.22   105.675
1532.97   106.7
1532.73   104.175
1532.49   104.4
1532.24   104.3
1532   104
1531.76   103.025
1531.51   104.975
1531.27   103.15
1531.02   105.025
1530.78   101.45
1530.54   101.375
1530.29   101.275
1530.05   101.5
1529.8   100.075
1529.56   102.45
1529.32   101.925
1529.07   100.775
1528.83   100.75
1528.59   99.4
1528.34   100.475
1528.1   101.425
1527.85   100.825
1527.61   100.2
1527.37   101.725
1527.12   101.25
1526.88   100.85
1526.63   99.8
1526.39   99.875
1526.15   99.65
1525.9   97.3
1525.66   97.775
1525.41   98.375
1525.17   97.625
1524.92   98.975
1524.68   97.375
1524.44   97.575
1524.19   96.175
1523.95   100.325
1523.7   95.925
1523.46   97.9
1523.22   94.875
1522.97   97
1522.73   96.5
1522.48   98.625
1522.24   95.8
1521.99   94.575
1521.75   96.15
1521.5   95.075
1521.26   97.25
1521.02   94.45
1520.77   95.425
1520.53   96.35
1520.28   95.575
1520.04   96.45
1519.79   94.45
1519.55   93.125
1519.31   94.7
1519.06   93.95
1518.82   95.625
1518.57   95.025
1518.33   94.6
1518.08   96
1517.84   93.675
1517.59   94.3
1517.35   93.4
1517.1   94.6
1516.86   93.525
1516.62   94.025
1516.37   94.825
1516.13   93.2
1515.88   93.1
1515.64   92.775
1515.39   93.05
1515.15   91.7
1514.9   93.05
1514.66   92.375
1514.41   91.7
1514.17   92
1513.92   91.75
1513.68   91.05
1513.43   90.75
1513.19   90.625
1512.95   90.6
1512.7   89.475
1512.46   91.575
1512.21   90.4
1511.97   90.425
1511.72   90.475
1511.48   91.6
1511.23   89.45
1510.99   91.675
1510.74   90.45
1510.5   91.675
1510.25   90.725
1510.01   92.05
1509.76   91.875
1509.52   89.675
1509.27   91.875
1509.03   90.075
1508.78   90.2
1508.54   91.175
1508.29   90
1508.05   91.05
1507.8   90.425
1507.56   90.4
1507.31   91.675
1507.07   90.25
1506.82   91.15
1506.57   90
1506.33   89.8
1506.08   89.55
1505.84   90.45
1505.59   89.35
1505.35   90.95
1505.1   90.075
1504.86   89.625
1504.61   90.025
1504.37   89.325
1504.12   89.7
1503.88   88.525
1503.63   88.175
1503.39   88.775
1503.14   89.55
1502.9   90.325
1502.65   89.125
1502.41   89.55
1502.16   90.3
1501.92   88.625
1501.67   90.15
1501.42   91.725
1501.18   89.2
1500.93   89.4
1500.69   87.575
1500.44   90.15
1500.2   87.425
1499.95   89.7
1499.71   87.625
1499.46   87.45
1499.21   88.675
1498.97   89.45
1498.72   89.2
1498.48   88.95
1498.23   88.65
1497.99   88.5
1497.74   88.675
1497.5   89.625
1497.25   89.025
1497   89.375
1496.76   88.675
1496.51   88.225
1496.27   87.825
1496.02   89.45
1495.78   88.875
1495.53   88.925
1495.28   88.75
1495.04   87.175
1494.79   86.625
1494.55   86.75
1494.3   85.675
1494.05   88.25
1493.81   86.175
1493.56   89.1
1493.32   88.275
1493.07   87.75
1492.83   87.45
1492.58   88.275
1492.33   86.925
1492.09   87.125
1491.84   88.2
1491.6   89.025
1491.35   86.325
1491.1   88.8
1490.86   87.8
1490.61   88.575
1490.37   86.725
1490.12   89.275
1489.87   88.325
1489.63   87.275
1489.38   89.2
1489.14   87.325
1488.89   87.35
1488.64   89.125
1488.4   88.125
1488.15   86.7
1487.91   87.5
1487.66   86.15
1487.41   87.575
1487.17   86.1
1486.92   88.6
1486.67   87.9
1486.43   87.225
1486.18   85.825
1485.93   84.75
1485.69   87.575
1485.44   86.325
1485.19   87.875
1484.95   87.425
1484.7   87.475
1484.46   85.225
1484.21   85.725
1483.96   87.25
1483.72   86.7
1483.47   87.35
1483.22   87.05
1482.98   87.225
1482.73   86.05
1482.48   87.725
1482.24   86.8
1481.99   85.825
1481.75   84.975
1481.5   87.325
1481.25   87.975
1481.01   83.925
1480.76   86.55
1480.51   86.675
1480.26   87.625
1480.02   86.425
1479.77   88.075
1479.52   85.075
1479.28   86.125
1479.03   85.325
1478.79   87.4
1478.54   85.4
1478.29   85.925
1478.04   83.3
1477.8   86.15
1477.55   86.025
1477.31   87.15
1477.06   84.5
1476.81   86.925
1476.57   85.475
1476.32   85.45
1476.07   84.65
1475.82   87.375
1475.58   84.7
1475.33   85
1475.08   85.725
1474.84   83.05
1474.59   83.925
1474.34   84.775
1474.1   84.525
1473.85   84.325
1473.6   85.225
1473.36   84.025
1473.11   83.95
1472.86   84
1472.61   85.45
1472.37   82.15
1472.12   83.675
1471.87   82.3
1471.63   82.675
1471.38   82.075
1471.13   81.425
1470.88   85.725
1470.64   85.275
1470.39   83.65
1470.14   85.65
1469.9   83.5
1469.65   84.85
1469.4   84.85
1469.15   86.05
1468.91   85.75
1468.66   83.35
1468.41   85.775
1468.16   85.675
1467.92   84.575
1467.67   85.575
1467.42   85.25
1467.18   87.25
1466.93   87.125
1466.68   86.675
1466.43   86.225
1466.19   86.925
1465.94   85.375
1465.69   86.725
1465.44   85.65
1465.2   87.175
1464.95   85.075
1464.7   86.85
1464.45   86.325
1464.21   86.375
1463.96   85
1463.71   86.275
1463.46   88.475
1463.22   85.025
1462.97   87.55
1462.72   87.025
1462.47   86.05
1462.23   85.975
1461.98   85.45
1461.73   85.175
1461.48   86.1
1461.24   88.2
1460.99   85.375
1460.74   86
1460.49   86.975
1460.25   88.125
1460   86.875
1459.75   87.425
1459.5   87.7
1459.25   86.6
1459   87.95
1458.76   86.8
1458.51   85.6
1458.26   86.95
1458.01   86.85
1457.77   84.575
1457.52   87.025
1457.27   85.7
1457.02   86.325
1456.78   85.9
1456.53   84.775
1456.28   85.625
1456.03   84.925
1455.78   87.35
1455.53   87.375
1455.29   85.775
1455.04   86.925
1454.79   86.45
1454.54   87.4
1454.29   86.2
1454.05   87.25
1453.8   87.85
1453.55   86.8
1453.3   86.65
1453.06   87.85
1452.81   85.925
1452.56   85.65
1452.31   86.85
1452.06   87.3
1451.81   86.425
1451.57   86.325
1451.32   87.6
1451.07   86.325
1450.82   85.125
1450.57   85.85
1450.32   84.225
1450.08   87.375
1449.83   85.1
1449.58   84.6
1449.33   84.775
1449.08   84.75
1448.83   85.575
1448.59   86.175
1448.34   85.475
1448.09   83.925
1447.84   84.65
1447.59   85.925
1447.34   86.725
1447.09   84.975
1446.85   84.625
1446.6   85.125
1446.35   85.25
1446.1   85.95
1445.85   85.125
1445.6   84.75
1445.36   85.575
1445.11   83.45
1444.86   84.975
1444.61   84.925
1444.36   84.95
1444.11   85.025
1443.87   83.975
1443.62   86.45
1443.37   83.8
1443.12   84.225
1442.87   83.85
1442.62   83.475
1442.37   82.75
1442.12   86.075
1441.88   82.775
1441.62   84.8
1441.38   84.175
1441.13   84.5
1440.88   83.35
1440.63   85.4
1440.38   83.325
1440.13   84.575
1439.88   83.65
1439.63   85.35
1439.39   82.75
1439.14   83.675
1438.89   84.125
1438.64   82.075
1438.39   83.95
1438.14   84.5
1437.89   84.9
1437.64   83.375
1437.39   84.25
1437.15   83.15
1436.9   85.7
1436.65   84.2
1436.4   83.925
1436.15   81.275
1435.9   82.35
1435.65   85.025
1435.4   82.975
1435.15   81.925
1434.9   83.5
1434.66   83.225
1434.41   83.475
1434.16   83.35
1433.91   83.35
1433.66   84.675
1433.41   83
1433.16   82.975
1432.91   81.25
1432.66   82.475
1432.41   81.9
1432.16   83.975
1431.92   84.85
1431.67   82.85
1431.41   82.75
1431.17   81.125
1430.92   83.425
1430.67   80.525
1430.42   80.45
1430.17   79.675
1429.92   81.175
1429.67   76.025
1429.42   68.525
1429.17   60.35
1428.92   48.975
1428.67   39.525
1428.42   28.1
1428.17   19.925
1427.92   13.1
1427.67   9.125
1427.42   6.225
1427.17   5
1426.92   4.075
1426.68   3.9
1426.43   3.125
1426.18   2.675
1425.93   2.425
1425.68   2.3
1425.43   2.125
1425.18   1.775
1424.93   2.2
1424.68   1.95
1424.43   1.575
1424.18   1.475
1423.93   1.475
