XY
Wavenumber     
Intensity      
"Start : "1423.93
"Stop  : "1672.31
S25424g.m3d

1672.31   0.225
1672.08   0.625
1671.84   0.25
1671.61   0.6
1671.37   0.5
1671.13   0.575
1670.9   0.45
1670.66   0.35
1670.43   0.425
1670.19   0.525
1669.95   0.425
1669.72   0.2
1669.48   0.25
1669.24   0.7
1669.01   0.5
1668.77   0.525
1668.54   0.625
1668.3   0.4
1668.06   0.325
1667.83   0.6
1667.59   0.45
1667.35   0.625
1667.12   0.575
1666.88   0.175
1666.65   0.525
1666.41   0.375
1666.17   0.425
1665.94   0.55
1665.7   0.625
1665.46   0.65
1665.23   0.65
1664.99   0.725
1664.76   0.175
1664.52   0.325
1664.28   0.825
1664.04   0.5
1663.81   0.825
1663.57   0.55
1663.34   0.375
1663.1   0.55
1662.86   0.7
1662.63   0.575
1662.39   0.5
1662.15   0.775
1661.92   0.95
1661.68   1.1
1661.44   0.675
1661.21   0.4
1660.97   1.225
1660.73   0.7
1660.5   0.875
1660.26   0.875
1660.02   0.9
1659.79   0.7
1659.55   0.775
1659.31   1.125
1659.08   0.675
1658.84   1.05
1658.6   1.025
1658.37   1.3
1658.13   1.025
1657.89   1.4
1657.66   1.425
1657.42   1.625
1657.18   2.375
1656.95   4.6
1656.71   9.425
1656.47   16.6
1656.24   26.55
1656   37.85
1655.76   50.55
1655.53   63.925
1655.29   71.7
1655.05   78.975
1654.81   84.225
1654.58   87.825
1654.34   89.425
1654.1   91.875
1653.87   89.3
1653.63   91.7
1653.39   93.925
1653.15   90.725
1652.92   90.35
1652.68   92.95
1652.44   91.425
1652.21   89.8
1651.97   90.425
1651.73   90.525
1651.5   90.025
1651.26   88.9
1651.02   88.65
1650.78   87.75
1650.55   86.4
1650.31   86.9
1650.07   86.775
1649.83   85.05
1649.6   83.6
1649.36   83.525
1649.12   83.575
1648.89   82.9
1648.65   82.05
1648.41   80.45
1648.17   79.6
1647.94   78.5
1647.7   80.6
1647.46   76.3
1647.23   79.175
1646.99   79.125
1646.75   77.575
1646.51   77.4
1646.27   78
1646.04   77.775
1645.8   76.3
1645.56   76.15
1645.33   75.375
1645.09   75.45
1644.85   76.425
1644.61   75.15
1644.38   75.9
1644.14   74.275
1643.9   74.4
1643.66   72.625
1643.43   74.7
1643.19   74.975
1642.95   73.125
1642.71   74.875
1642.47   73.825
1642.24   73.025
1642   74.625
1641.76   74.475
1641.52   73.3
1641.29   73.525
1641.05   73.025
1640.81   72.45
1640.57   72.05
1640.33   72.9
1640.1   72.825
1639.86   72.575
1639.62   72.7
1639.38   73.075
1639.15   74.225
1638.91   73.375
1638.67   73.6
1638.43   73.775
1638.2   72.45
1637.96   73.225
1637.72   72.6
1637.48   73.725
1637.24   75.8
1637   73.3
1636.77   75.5
1636.53   74.15
1636.29   73.825
1636.05   74.85
1635.82   73.5
1635.58   75.05
1635.34   74.7
1635.1   74.275
1634.86   74.075
1634.63   74.95
1634.39   74.15
1634.15   73.825
1633.91   75.425
1633.67   75.625
1633.44   74.225
1633.2   74.05
1632.96   75.95
1632.72   75.025
1632.48   75.35
1632.24   76.025
1632   76.95
1631.77   75.775
1631.53   74.5
1631.29   77.4
1631.05   77.175
1630.81   76.7
1630.58   78.325
1630.34   78.5
1630.1   76.5
1629.86   76.85
1629.62   78.825
1629.39   76.625
1629.15   78.85
1628.91   79.825
1628.67   76.525
1628.43   80.575
1628.19   78.6
1627.95   80.475
1627.72   80.225
1627.48   80.65
1627.24   79.175
1627   79.825
1626.76   80.45
1626.52   80.55
1626.28   80.6
1626.05   80.85
1625.81   81.975
1625.57   82.525
1625.33   83
1625.09   82.425
1624.85   83.05
1624.61   84.15
1624.38   83.8
1624.14   83.45
1623.9   83.275
1623.66   85.85
1623.42   86.75
1623.18   85.225
1622.94   85.075
1622.71   87.175
1622.47   85.775
1622.23   88.175
1621.99   86.6
1621.75   87.975
1621.51   88.8
1621.27   87.4
1621.03   88.575
1620.79   91.725
1620.55   89.7
1620.32   90.7
1620.08   90.875
1619.84   90.95
1619.6   92.725
1619.36   92.6
1619.12   94.85
1618.88   92.55
1618.64   94.775
1618.41   95.725
1618.17   96.9
1617.93   94.975
1617.69   99.125
1617.45   96.8
1617.21   97.4
1616.97   97.55
1616.73   100.275
1616.49   97.8
1616.25   100.575
1616.02   99.3
1615.78   102.425
1615.54   101.775
1615.3   101.575
1615.06   104.15
1614.82   105.55
1614.58   102.8
1614.34   104.675
1614.1   106.875
1613.86   106.15
1613.62   110.225
1613.38   108
1613.14   109.05
1612.9   108.825
1612.67   113.5
1612.43   112.575
1612.19   111.95
1611.95   114.075
1611.71   115.325
1611.47   116.575
1611.23   116.85
1610.99   118.225
1610.75   119.325
1610.51   121.15
1610.27   121.025
1610.03   123.2
1609.79   123.925
1609.55   125.75
1609.32   127.95
1609.08   129.075
1608.84   132.1
1608.6   134
1608.36   133.925
1608.12   136.575
1607.88   137.7
1607.64   140.175
1607.4   139.775
1607.16   142.4
1606.92   146.05
1606.68   147.15
1606.44   149.7
1606.2   149.025
1605.96   150.825
1605.72   156.675
1605.48   159.925
1605.24   162.175
1605   163.6
1604.76   168.95
1604.52   168.55
1604.28   171.725
1604.04   175.475
1603.8   178.625
1603.56   179.675
1603.32   184.175
1603.08   186.45
1602.85   190.8
1602.6   195.4
1602.36   201.05
1602.12   202.625
1601.88   205.275
1601.64   212.6
1601.41   219.45
1601.17   226.3
1600.92   229.4
1600.69   236.825
1600.45   241.825
1600.21   246.7
1599.96   253.675
1599.72   259.6
1599.48   269.275
1599.25   275.425
1599.01   281.075
1598.76   288.65
1598.53   297.65
1598.29   304.875
1598.04   315.025
1597.8   318.9
1597.56   336.775
1597.32   343
1597.08   356.65
1596.84   373.275
1596.6   386.45
1596.36   399.775
1596.12   414.15
1595.88   428.525
1595.64   448.925
1595.4   470.45
1595.16   489.675
1594.92   512.45
1594.68   535.9
1594.44   560.075
1594.2   585.15
1593.96   614.6
1593.72   649.05
1593.48   674.875
1593.24   708.275
1593   758.95
1592.76   793.875
1592.52   843.275
1592.28   872.825
1592.04   921.275
1591.8   961.35
1591.56   1012.38
1591.32   1044.28
1591.08   1097.4
1590.83   1127.75
1590.6   1158.65
1590.35   1179.5
1590.11   1195.43
1589.87   1211.4
1589.63   1224.6
1589.39   1223.08
1589.15   1203.58
1588.91   1184.22
1588.67   1179.03
1588.43   1147.57
1588.19   1117.85
1587.95   1084.38
1587.71   1052.28
1587.47   1021.68
1587.23   974.8
1586.99   938.025
1586.75   893.45
1586.5   864.425
1586.26   825.225
1586.02   801.75
1585.78   757
1585.54   723.8
1585.3   692.7
1585.06   664.3
1584.82   640.825
1584.58   611.1
1584.34   582.075
1584.1   554.6
1583.86   532.325
1583.62   509.025
1583.37   491.425
1583.13   472.8
1582.89   451.775
1582.65   434.525
1582.41   420.5
1582.17   399.375
1581.93   385.9
1581.69   373.65
1581.45   363.375
1581.21   353.325
1580.96   342.325
1580.72   330.625
1580.48   324.4
1580.24   313.775
1580   307.25
1579.76   296.075
1579.52   288.4
1579.28   286.15
1579.04   282.75
1578.79   280.225
1578.55   267.775
1578.31   264.15
1578.07   260.275
1577.83   250.925
1577.59   245.525
1577.35   237.85
1577.11   231.85
1576.86   228.475
1576.62   223.15
1576.38   217.5
1576.14   212.825
1575.9   206.125
1575.66   206.275
1575.42   199.4
1575.17   194.975
1574.93   192.5
1574.69   185.875
1574.45   185.275
1574.21   177.975
1573.97   176.475
1573.73   171.475
1573.49   170.175
1573.24   165.85
1573   162.05
1572.76   160.15
1572.52   155.95
1572.28   155.575
1572.04   151.725
1571.79   151.675
1571.55   148.325
1571.31   146.225
1571.07   141.85
1570.83   143.725
1570.59   139.025
1570.35   136.9
1570.1   134.725
1569.86   135.025
1569.62   135.425
1569.38   133.45
1569.14   128.075
1568.89   128.4
1568.65   126.275
1568.41   127.4
1568.17   125.775
1567.93   121.7
1567.69   122.225
1567.45   121.975
1567.2   122.075
1566.96   121.1
1566.72   116.925
1566.48   119.375
1566.24   118.65
1565.99   116.3
1565.75   114.3
1565.51   115.775
1565.27   113.375
1565.03   114.8
1564.78   112.125
1564.54   110.65
1564.3   110.025
1564.06   110.375
1563.82   107.65
1563.57   110.175
1563.33   108.85
1563.09   106.875
1562.85   107.55
1562.61   107.325
1562.36   107.65
1562.12   106.325
1561.88   106.05
1561.64   102.75
1561.4   102.15
1561.15   104.95
1560.91   103
1560.67   105.175
1560.43   106.875
1560.19   105.05
1559.94   104.775
1559.7   105.075
1559.46   104.9
1559.22   106.05
1558.97   102.575
1558.73   102.875
1558.49   103.925
1558.25   102.8
1558   105.35
1557.76   105.075
1557.52   103.15
1557.28   104.5
1557.04   106
1556.79   106.475
1556.55   104.975
1556.31   106.725
1556.06   107.85
1555.82   109.725
1555.58   109.95
1555.34   108.475
1555.1   108.4
1554.85   110.075
1554.61   111.875
1554.37   111.5
1554.13   111.5
1553.88   112.85
1553.64   114.35
1553.4   114.45
1553.16   114.3
1552.91   115.875
1552.67   115.7
1552.43   116.45
1552.18   115.6
1551.94   118.85
1551.7   119.775
1551.46   118.925
1551.21   119.925
1550.97   120.35
1550.73   120.175
1550.49   120.65
1550.24   121.225
1550   123.225
1549.76   121.375
1549.51   121.975
1549.27   124.5
1549.03   123.05
1548.79   123.825
1548.54   122.55
1548.3   125.325
1548.06   121.925
1547.81   121.075
1547.57   120.9
1547.33   120.325
1547.09   123.45
1546.84   120.45
1546.6   118.45
1546.36   118.65
1546.12   119.525
1545.87   121.85
1545.63   121.175
1545.39   123.25
1545.14   122.875
1544.9   122.575
1544.66   127.425
1544.41   126.525
1544.17   130.2
1543.93   131.725
1543.68   134.9
1543.44   137.55
1543.2   140.875
1542.96   147.675
1542.71   152.925
1542.47   155.225
1542.23   163.6
1541.98   174.175
1541.74   172.85
1541.5   176.9
1541.25   180.5
1541.01   181.75
1540.77   183.725
1540.52   179.1
1540.28   178.15
1540.04   173
1539.79   169.275
1539.55   168.175
1539.31   162.6
1539.06   154.825
1538.82   150.2
1538.58   145.325
1538.33   140.75
1538.09   136.525
1537.85   130.975
1537.6   125.95
1537.36   121.25
1537.12   118.675
1536.87   119
1536.63   112.5
1536.38   110.975
1536.14   108.55
1535.9   107
1535.65   105.75
1535.41   101.925
1535.17   100.4
1534.92   97.925
1534.68   96.95
1534.44   96.35
1534.19   94.75
1533.95   93.95
1533.71   93.875
1533.46   92.4
1533.22   89.875
1532.97   90
1532.73   88.35
1532.49   87.05
1532.24   86.35
1532   87.925
1531.76   84.975
1531.51   86.1
1531.27   84.775
1531.02   86.45
1530.78   84.975
1530.54   83.35
1530.29   83.125
1530.05   82.2
1529.8   84.225
1529.56   82.525
1529.32   81.925
1529.07   81.85
1528.83   82.7
1528.59   81.6
1528.34   79.825
1528.1   81.325
1527.85   82.8
1527.61   81.225
1527.37   81.2
1527.12   81.1
1526.88   81.6
1526.63   82.575
1526.39   82.2
1526.15   78.3
1525.9   80.675
1525.66   81.1
1525.41   80.35
1525.17   82.1
1524.92   81.05
1524.68   79.175
1524.44   78.5
1524.19   76.95
1523.95   80.475
1523.7   77.25
1523.46   77.075
1523.22   78.975
1522.97   75.65
1522.73   76.05
1522.48   76.2
1522.24   76.35
1521.99   75.35
1521.75   75.925
1521.5   74.625
1521.26   73.75
1521.02   75.7
1520.77   73.65
1520.53   76.025
1520.28   73.225
1520.04   72
1519.79   71.9
1519.55   71.7
1519.31   72.425
1519.06   72.325
1518.82   73.125
1518.57   71.85
1518.33   71.225
1518.08   72
1517.84   70.8
1517.59   70.8
1517.35   70.9
1517.1   70.925
1516.86   71.975
1516.62   69.125
1516.37   70.325
1516.13   70.825
1515.88   70.575
1515.64   71.8
1515.39   71.45
1515.15   68.125
1514.9   71.025
1514.66   69.525
1514.41   70.625
1514.17   69.75
1513.92   67.025
1513.68   69.55
1513.43   68.825
1513.19   66.975
1512.95   69.225
1512.7   67.25
1512.46   67
1512.21   67.05
1511.97   67.575
1511.72   67.05
1511.48   69.05
1511.23   68.925
1510.99   69.7
1510.74   68.575
1510.5   68.1
1510.25   68.975
1510.01   67.225
1509.76   67.55
1509.52   66.425
1509.27   68.175
1509.03   68.875
1508.78   67.55
1508.54   66.7
1508.29   68.4
1508.05   69.125
1507.8   66.2
1507.56   66.85
1507.31   67.7
1507.07   68.15
1506.82   66.4
1506.57   65.6
1506.33   68.475
1506.08   69.225
1505.84   67.525
1505.59   65.1
1505.35   67.6
1505.1   66.825
1504.86   68.525
1504.61   65.3
1504.37   68.725
1504.12   66.425
1503.88   67.475
1503.63   67.65
1503.39   64.7
1503.14   66.175
1502.9   68.175
1502.65   66.825
1502.41   68.225
1502.16   65.55
1501.92   65.65
1501.67   67.5
1501.42   67.025
1501.18   67.35
1500.93   67.225
1500.69   67.175
1500.44   66.4
1500.2   67.2
1499.95   66
1499.71   67.1
1499.46   66.425
1499.21   68
1498.97   66.375
1498.72   66.975
1498.48   66.2
1498.23   66.2
1497.99   67.675
1497.74   65.525
1497.5   66.35
1497.25   68.2
1497   65.6
1496.76   66.7
1496.51   65.825
1496.27   65.875
1496.02   66.5
1495.78   68.125
1495.53   66.325
1495.28   65.175
1495.04   67.15
1494.79   66.2
1494.55   68.45
1494.3   66.95
1494.05   67.375
1493.81   65.225
1493.56   65.275
1493.32   67
1493.07   65.775
1492.83   63.025
1492.58   66.875
1492.33   66.8
1492.09   66
1491.84   66.725
1491.6   65.3
1491.35   64.175
1491.1   65.375
1490.86   65.425
1490.61   66.75
1490.37   66.375
1490.12   66.2
1489.87   66.05
1489.63   65.925
1489.38   65.55
1489.14   64.525
1488.89   65.05
1488.64   65.2
1488.4   64.975
1488.15   65.875
1487.91   65.55
1487.66   64
1487.41   65.1
1487.17   65.475
1486.92   63.55
1486.67   65
1486.43   65.9
1486.18   63.85
1485.93   64.475
1485.69   63.65
1485.44   67.075
1485.19   65.075
1484.95   65.075
1484.7   64.45
1484.46   63.775
1484.21   64.65
1483.96   65.275
1483.72   65.625
1483.47   64.475
1483.22   64.15
1482.98   65.15
1482.73   64.425
1482.48   64.3
1482.24   64.675
1481.99   65.125
1481.75   63.775
1481.5   66.175
1481.25   63.3
1481.01   63.75
1480.76   65.125
1480.51   63.85
1480.26   66.3
1480.02   64.825
1479.77   64.725
1479.52   63.9
1479.28   65.025
1479.03   64.8
1478.79   63.775
1478.54   64.175
1478.29   64.75
1478.04   64.3
1477.8   63
1477.55   63.9
1477.31   64.35
1477.06   64.725
1476.81   62.825
1476.57   63.375
1476.32   65.3
1476.07   61.85
1475.82   64.2
1475.58   64.125
1475.33   64.05
1475.08   64.3
1474.84   64.525
1474.59   62.725
1474.34   63.85
1474.1   64.8
1473.85   63.725
1473.6   63.35
1473.36   63.375
1473.11   63.3
1472.86   63.05
1472.61   61.975
1472.37   62.975
1472.12   62.35
1471.87   62.575
1471.63   61.5
1471.38   63
1471.13   62.55
1470.88   62.525
1470.64   62.925
1470.39   64.3
1470.14   64.175
1469.9   63.875
1469.65   62.775
1469.4   64.525
1469.15   63.725
1468.91   64.05
1468.66   63.325
1468.41   66.85
1468.16   64.075
1467.92   63.625
1467.67   64.325
1467.42   65
1467.18   64.55
1466.93   66.125
1466.68   64.45
1466.43   63.55
1466.19   63.925
1465.94   65.725
1465.69   63.95
1465.44   64.475
1465.2   66.75
1464.95   64.85
1464.7   67.45
1464.45   66.6
1464.21   65.625
1463.96   65.925
1463.71   64.825
1463.46   65.375
1463.22   63.925
1462.97   65.95
1462.72   64.775
1462.47   65.775
1462.23   65.775
1461.98   65.55
1461.73   65.075
1461.48   66.525
1461.24   65.075
1460.99   65.675
1460.74   65.9
1460.49   65.875
1460.25   66.625
1460   65.475
1459.75   67.675
1459.5   66.075
1459.25   65.45
1459   65.3
1458.76   65.725
1458.51   66.875
1458.26   66.25
1458.01   65.025
1457.77   65.45
1457.52   65.525
1457.27   64.725
1457.02   65.4
1456.78   66.925
1456.53   67.075
1456.28   67
1456.03   66.15
1455.78   66.3
1455.53   68.775
1455.29   66.725
1455.04   67.575
1454.79   66
1454.54   67.275
1454.29   66.9
1454.05   66.475
1453.8   66.15
1453.55   68.725
1453.3   66.55
1453.06   68.525
1452.81   66.25
1452.56   67.625
1452.31   65.075
1452.06   66.025
1451.81   66.7
1451.57   65.425
1451.32   65.55
1451.07   66.55
1450.82   63.675
1450.57   65.525
1450.32   63.15
1450.08   64.775
1449.83   64.95
1449.58   63.5
1449.33   61.625
1449.08   62.325
1448.83   62.7
1448.59   61.825
1448.34   61.775
1448.09   61.75
1447.84   63.15
1447.59   61.35
1447.34   62.1
1447.09   61.25
1446.85   60.7
1446.6   60.525
1446.35   62.6
1446.1   59.65
1445.85   61.5
1445.6   60.775
1445.36   61.225
1445.11   61.825
1444.86   61.225
1444.61   60.925
1444.36   60.35
1444.11   61.175
1443.87   61.475
1443.62   60.3
1443.37   61.775
1443.12   60.825
1442.87   59.725
1442.62   60.625
1442.37   59.9
1442.12   59.2
1441.88   61.5
1441.62   59.1
1441.38   61.825
1441.13   60.65
1440.88   60.55
1440.63   60.425
1440.38   59.725
1440.13   59.55
1439.88   59.7
1439.63   61.325
1439.39   61.525
1439.14   58.8
1438.89   60.75
1438.64   61.15
1438.39   60.7
1438.14   60.1
1437.89   59.575
1437.64   61.125
1437.39   59.8
1437.15   61.15
1436.9   59.45
1436.65   59.7
1436.4   61.075
1436.15   58.925
1435.9   58.05
1435.65   60.975
1435.4   59.3
1435.15   60.575
1434.9   59.775
1434.66   59.825
1434.41   60.35
1434.16   59.725
1433.91   58.825
1433.66   59.525
1433.41   59.95
1433.16   59.725
1432.91   59.725
1432.66   59.85
1432.41   59.8
1432.16   59.15
1431.92   58.875
1431.67   58.425
1431.41   59.825
1431.17   59.525
1430.92   58.775
1430.67   57.5
1430.42   58.825
1430.17   57.6
1429.92   57.775
1429.67   55.875
1429.42   53
1429.17   48.1
1428.92   41.575
1428.67   35.25
1428.42   26.4
1428.17   19.1
1427.92   13.475
1427.67   8.95
1427.42   6.375
1427.17   4.9
1426.92   3.675
1426.68   3.25
1426.43   2.525
1426.18   2.375
1425.93   1.55
1425.68   1.775
1425.43   1.35
1425.18   1.325
1424.93   1.675
1424.68   1.625
1424.43   1.3
1424.18   1.225
1423.93   1.225
