XY
Wavenumber     
Intensity      
"Start : "1219.22
"Stop  : "1477.06
S25424f.m3d

1477.06   -0.075
1476.82   0.325
1476.57   0.075
1476.33   -0.025
1476.08   0.1
1475.84   0.05
1475.59   0.35
1475.35   0.075
1475.1   0.15
1474.85   0.025
1474.61   0.225
1474.37   0.15
1474.12   0.375
1473.88   0.225
1473.63   0.225
1473.39   0.25
1473.14   0.35
1472.9   0.2
1472.65   0.075
1472.41   0.125
1472.16   -0.1
1471.91   0.1
1471.67   0.3
1471.42   -0.15
1471.18   0.15
1470.93   0.125
1470.69   0.325
1470.44   -0.025
1470.2   0.2
1469.95   0.3
1469.71   0.3
1469.46   0.25
1469.21   0.525
1468.97   -0.125
1468.73   -1.49012e-08
1468.48   -0.1
1468.24   0.375
1467.99   -0.075
1467.74   0.425
1467.5   0.325
1467.25   0.25
1467.01   0.075
1466.76   0.3
1466.52   0.325
1466.27   0.35
1466.03   0.3
1465.78   0.225
1465.53   0.125
1465.29   0.25
1465.04   0.7
1464.8   0.375
1464.55   0.125
1464.31   0.15
1464.06   0.65
1463.82   0.425
1463.57   0.475
1463.32   0.575
1463.08   0.625
1462.83   0.925
1462.58   0.825
1462.34   0.9
1462.09   2.05
1461.85   3.325
1461.6   7.9
1461.36   13.85
1461.11   20.275
1460.86   28.275
1460.62   38.05
1460.37   45.45
1460.13   51.65
1459.88   57.575
1459.64   59.65
1459.39   63.7
1459.14   62.75
1458.9   63.5
1458.65   64.125
1458.41   63.5
1458.16   64.95
1457.92   63.775
1457.67   64.325
1457.42   64.975
1457.18   63.975
1456.93   64.275
1456.68   65.35
1456.44   66.475
1456.19   66
1455.95   66.025
1455.7   63.675
1455.45   65.15
1455.21   66.375
1454.96   66.425
1454.71   65.475
1454.47   66.125
1454.22   66.925
1453.98   66.825
1453.73   66.95
1453.49   65.95
1453.24   65.9
1452.99   66.425
1452.75   66.05
1452.5   66.15
1452.25   65.4
1452.01   64.8
1451.76   65.95
1451.51   64.175
1451.27   64.15
1451.02   63.6
1450.77   64.475
1450.53   64.175
1450.28   62.9
1450.04   61.85
1449.79   63.45
1449.54   64.2
1449.29   62.025
1449.05   63.6
1448.8   62.35
1448.56   62.45
1448.31   61.875
1448.06   61.825
1447.82   63.15
1447.57   61
1447.32   62.55
1447.08   62.35
1446.83   61.1
1446.58   62.025
1446.34   60.075
1446.09   58.725
1445.84   60.125
1445.6   61.65
1445.35   60.9
1445.1   60.525
1444.86   61.35
1444.61   60.575
1444.36   60.175
1444.12   60.3
1443.87   61.4
1443.62   60.475
1443.38   60.575
1443.13   60.975
1442.88   62.525
1442.63   60.325
1442.39   60.2
1442.14   59.225
1441.9   60.7
1441.65   61.15
1441.4   61.325
1441.15   60.7
1440.91   61.775
1440.66   59.9
1440.41   60.925
1440.17   60.1
1439.92   60.975
1439.67   59.925
1439.42   60.45
1439.18   60.025
1438.93   59.975
1438.68   60.85
1438.44   59.75
1438.19   60.15
1437.94   60.575
1437.7   60.6
1437.45   61.375
1437.2   62.25
1436.95   61.05
1436.71   60.025
1436.46   61.325
1436.21   59.925
1435.97   61.35
1435.72   59.875
1435.47   61.85
1435.22   59.275
1434.98   60.35
1434.73   59.6
1434.48   60.55
1434.23   62.05
1433.99   61.95
1433.74   60.425
1433.49   60.925
1433.25   60.6
1433   60.675
1432.75   60.7
1432.5   60.325
1432.25   61.425
1432.01   60.975
1431.76   61.225
1431.51   61.225
1431.27   59.875
1431.02   62.025
1430.77   59.225
1430.52   61.35
1430.28   59.275
1430.03   62.35
1429.78   61.4
1429.53   60.825
1429.29   60.075
1429.04   59.525
1428.79   60.75
1428.54   62.65
1428.29   59.375
1428.05   60.725
1427.8   60.825
1427.55   59.825
1427.3   60.65
1427.06   61.85
1426.81   61
1426.56   61.15
1426.31   60.6
1426.07   60.85
1425.82   61.225
1425.57   61.375
1425.32   61.375
1425.07   61.275
1424.83   59.55
1424.58   61.075
1424.33   60.05
1424.08   60.475
1423.83   60.925
1423.59   60.7
1423.34   61.475
1423.09   60.3
1422.84   60.1
1422.59   59.925
1422.35   60.375
1422.1   62.05
1421.85   60.625
1421.6   61.85
1421.36   60.725
1421.11   60.65
1420.86   61.325
1420.61   60.075
1420.36   59.9
1420.11   61
1419.87   62.7
1419.62   61.7
1419.37   60.8
1419.12   61.375
1418.87   62
1418.62   61.175
1418.38   60.35
1418.13   60.975
1417.88   61.625
1417.63   61.275
1417.38   60.1
1417.14   62.1
1416.89   61.4
1416.64   60.825
1416.39   61.3
1416.14   62.375
1415.89   62.5
1415.65   62
1415.4   59.325
1415.15   61.225
1414.9   61.475
1414.65   61.35
1414.4   61.85
1414.16   61.975
1413.91   61.85
1413.66   60.725
1413.41   61.175
1413.16   61.325
1412.91   61.075
1412.67   61.85
1412.42   61.775
1412.17   61.3
1411.92   60.625
1411.67   60.425
1411.42   61.45
1411.17   60.75
1410.92   60.25
1410.68   61.4
1410.43   62.575
1410.18   62.275
1409.93   61.25
1409.68   62.25
1409.43   61.2
1409.18   61
1408.94   60.3
1408.69   60.675
1408.44   61.425
1408.19   63.025
1407.94   62.525
1407.69   60.625
1407.44   62.4
1407.19   61.75
1406.95   61.25
1406.7   60.45
1406.45   62.05
1406.2   61.625
1405.95   61.725
1405.7   63.1
1405.45   61.175
1405.2   60.05
1404.95   60.975
1404.71   62.675
1404.46   61.825
1404.21   61.975
1403.96   60.275
1403.71   61.925
1403.46   62.7
1403.21   61.975
1402.96   60.125
1402.71   62.3
1402.46   60.425
1402.22   61.65
1401.97   61
1401.72   62.075
1401.47   61.45
1401.22   61.275
1400.97   62.4
1400.72   60.975
1400.47   62.75
1400.22   63.5
1399.97   61.375
1399.72   63.375
1399.47   61.875
1399.22   59.875
1398.98   59.8
1398.73   61.725
1398.48   62.125
1398.23   60.325
1397.98   61.775
1397.73   62.1
1397.48   61.4
1397.23   63.425
1396.98   62.15
1396.73   60.8
1396.48   62.925
1396.23   62.275
1395.98   60.325
1395.73   62.15
1395.49   60.725
1395.24   61.225
1394.98   61.3
1394.74   60.1
1394.49   60.4
1394.24   61.625
1393.99   62.375
1393.74   61.85
1393.49   61.1
1393.24   62.05
1392.99   61.05
1392.74   62.225
1392.49   61.9
1392.24   62.6
1391.99   63.425
1391.74   61.55
1391.49   63.45
1391.24   62.5
1390.99   62.55
1390.74   63.85
1390.49   62.3
1390.24   62.15
1389.99   64.4
1389.74   63.15
1389.49   61.475
1389.24   63.25
1388.99   63.275
1388.74   63.475
1388.49   61.325
1388.24   61.625
1387.99   62.625
1387.74   62.825
1387.49   63.525
1387.24   62.6
1386.99   64.375
1386.74   62.65
1386.49   63.85
1386.24   60.75
1385.99   64.1
1385.74   62.85
1385.5   62.875
1385.24   63.225
1384.99   62.725
1384.74   64.1
1384.49   63.3
1384.24   63.725
1383.99   63.925
1383.74   66.2
1383.49   63.6
1383.24   63.625
1382.99   64.525
1382.74   63.5
1382.49   64.275
1382.24   64.45
1381.99   64.15
1381.74   65.075
1381.49   63.45
1381.24   63.275
1380.99   64.025
1380.74   65.025
1380.49   63.725
1380.24   65.4
1379.99   64.1
1379.74   63.925
1379.49   64.275
1379.24   64.175
1378.99   64.2
1378.74   64.425
1378.49   62.975
1378.24   63.475
1377.99   62.85
1377.74   63.775
1377.49   64.15
1377.23   65.425
1376.99   62.75
1376.73   63.975
1376.48   64.075
1376.23   63.375
1375.98   63.825
1375.73   64.525
1375.48   64.55
1375.23   62.375
1374.98   64.525
1374.73   64.725
1374.48   64.875
1374.23   64.45
1373.98   62.25
1373.73   63
1373.48   64.5
1373.22   63.7
1372.98   63.95
1372.72   62.525
1372.47   64.425
1372.22   64.525
1371.97   64.05
1371.72   65.375
1371.47   63.875
1371.22   63.525
1370.97   63.875
1370.72   65.2
1370.47   64.575
1370.22   64.3
1369.96   63.9
1369.71   63.6
1369.46   63.875
1369.21   63.625
1368.96   62.525
1368.71   65.375
1368.46   62.625
1368.21   64.175
1367.96   65.1
1367.71   65.675
1367.46   63.2
1367.2   63.175
1366.95   63.275
1366.7   66.175
1366.45   65.5
1366.2   63.325
1365.95   64.225
1365.7   65.125
1365.45   64.35
1365.2   64.675
1364.94   65.375
1364.69   64.825
1364.44   64.3
1364.19   64.45
1363.94   65.3
1363.69   63.8
1363.44   63.7
1363.19   64.8
1362.93   65.075
1362.68   62.875
1362.43   64.55
1362.18   63.8
1361.93   64
1361.68   65.35
1361.43   65.025
1361.17   65.65
1360.92   63.825
1360.67   65.1
1360.42   65.125
1360.17   66.325
1359.92   65.4
1359.67   63.55
1359.41   64.9
1359.16   63.55
1358.91   64.65
1358.66   64.775
1358.41   63.7
1358.16   65.4
1357.91   64.55
1357.65   64.55
1357.4   66.05
1357.15   64.95
1356.9   64.75
1356.65   65.75
1356.4   64.9
1356.14   65.35
1355.89   66.25
1355.64   66.7
1355.39   66.375
1355.14   66.625
1354.89   66.125
1354.63   66.5
1354.38   67.625
1354.13   65.725
1353.88   66.175
1353.63   66.975
1353.38   65.6
1353.12   65.95
1352.87   68.05
1352.62   66.925
1352.37   67.25
1352.12   67.525
1351.86   66.4
1351.61   67.7
1351.36   67.2
1351.11   66.925
1350.86   67.275
1350.6   67.125
1350.35   67.375
1350.1   67.4
1349.85   68.5
1349.6   67.15
1349.34   68.125
1349.09   67.75
1348.84   67.225
1348.59   68.725
1348.34   69.05
1348.08   66.875
1347.83   67.025
1347.58   68.35
1347.33   66.8
1347.08   68.75
1346.82   69.3
1346.57   69.1
1346.32   68.55
1346.07   69.2
1345.81   69.25
1345.56   68.225
1345.31   69.1
1345.06   67.725
1344.81   68.6
1344.55   69.2
1344.3   68.6
1344.05   69.05
1343.8   69.675
1343.54   67.2
1343.29   69.75
1343.04   68.75
1342.79   68.475
1342.53   68.425
1342.28   67.625
1342.03   70.05
1341.78   69.125
1341.52   70.3
1341.27   69.6
1341.02   68.35
1340.77   69.8
1340.51   71.15
1340.26   69.55
1340.01   69.65
1339.76   68.875
1339.5   70.275
1339.25   70.375
1339   70.7
1338.75   70.15
1338.49   69.8
1338.24   72.075
1337.99   68.875
1337.73   70
1337.48   68.9
1337.23   69.125
1336.98   69.675
1336.72   70.075
1336.47   67.775
1336.22   67.3
1335.97   69.025
1335.71   68.325
1335.46   68.525
1335.21   71.175
1334.96   70.625
1334.7   68.875
1334.45   68.95
1334.2   68.125
1333.94   68.8
1333.69   69.075
1333.44   70.35
1333.18   70.6
1332.93   69.275
1332.68   69.1
1332.43   69.825
1332.17   69.6
1331.92   69.175
1331.67   69.275
1331.41   70.35
1331.16   71.975
1330.91   70.625
1330.65   68.15
1330.4   70.65
1330.15   69.525
1329.9   72.175
1329.64   71.2
1329.39   68.55
1329.14   72.025
1328.88   70.425
1328.63   72
1328.38   70.1
1328.12   70.775
1327.87   72.525
1327.62   71.9
1327.36   71.75
1327.11   72.4
1326.86   71.9
1326.6   71.5
1326.35   70.275
1326.1   72.25
1325.84   73.175
1325.59   73.975
1325.34   71.875
1325.08   73.325
1324.83   71.875
1324.58   73.175
1324.32   72.25
1324.07   73.45
1323.82   72.05
1323.56   73.825
1323.31   74.4
1323.05   73.45
1322.8   74.175
1322.55   74.225
1322.29   74.075
1322.04   73.85
1321.79   73.45
1321.53   74.05
1321.28   73.925
1321.03   76.25
1320.77   73.225
1320.52   75.35
1320.27   75.725
1320.01   74.15
1319.76   75.475
1319.51   75.675
1319.25   74.225
1319   75.35
1318.74   75.05
1318.49   76.075
1318.24   74.075
1317.98   74.875
1317.73   76.925
1317.48   75.4
1317.22   76.25
1316.97   77.25
1316.71   77.775
1316.46   77.35
1316.21   75.2
1315.95   78.875
1315.7   76.2
1315.44   78.125
1315.19   78.625
1314.94   77.675
1314.68   79.975
1314.43   78.825
1314.17   77.375
1313.92   79.05
1313.67   80.3
1313.41   79.8
1313.16   79.825
1312.9   80.225
1312.65   79.675
1312.4   81.675
1312.14   79.025
1311.89   80.325
1311.63   81.55
1311.38   80.225
1311.12   81.775
1310.87   82.825
1310.62   83.025
1310.36   81.9
1310.11   82.875
1309.85   84.525
1309.6   86.975
1309.35   86.075
1309.09   86.175
1308.84   88.2
1308.58   88.85
1308.33   88.2
1308.07   88.55
1307.82   90.4
1307.56   91.375
1307.31   92.025
1307.06   92.6
1306.8   92.075
1306.55   96.7
1306.29   94.175
1306.04   93.725
1305.78   95.575
1305.53   96.375
1305.28   96.325
1305.02   98
1304.77   98.675
1304.51   98.675
1304.26   98.8
1304   99.425
1303.75   99.9
1303.49   99.75
1303.24   100.65
1302.98   101.9
1302.73   102.425
1302.47   99.925
1302.22   103.3
1301.97   102.125
1301.71   102.85
1301.46   102.175
1301.2   101.525
1300.95   100.6
1300.69   102.325
1300.44   102.475
1300.18   100.525
1299.93   100.025
1299.67   99.125
1299.42   97.775
1299.16   98.85
1298.91   98.3
1298.65   99.875
1298.4   97.525
1298.14   96.6
1297.89   97.175
1297.63   96.1
1297.38   97.15
1297.13   95.825
1296.87   93.625
1296.61   94.05
1296.36   94.5
1296.1   94.9
1295.85   92.5
1295.59   92.45
1295.34   92.025
1295.08   93.025
1294.83   92.1
1294.57   91
1294.32   90.45
1294.06   88.725
1293.81   89.5
1293.55   89.175
1293.3   87.625
1293.04   88.15
1292.79   86.3
1292.53   86.825
1292.28   86.125
1292.02   87.3
1291.77   85.925
1291.51   86.35
1291.26   86.675
1291   86.675
1290.75   85.025
1290.49   81.725
1290.23   84.8
1289.98   84.4
1289.73   84.475
1289.47   85.625
1289.21   81.9
1288.96   83
1288.7   83.675
1288.45   80.825
1288.19   82.275
1287.94   81.875
1287.68   80.45
1287.43   80.5
1287.17   82.05
1286.91   77.575
1286.66   80.1
1286.4   81.15
1286.15   80.625
1285.89   79.075
1285.64   78.25
1285.38   77.8
1285.13   78.2
1284.87   78.7
1284.61   77.9
1284.36   75.225
1284.1   77.25
1283.85   78.05
1283.59   77.4
1283.34   76.55
1283.08   75.9
1282.82   76.7
1282.57   76.275
1282.31   74.575
1282.06   73.625
1281.8   74.025
1281.55   74.35
1281.29   74.725
1281.04   75.375
1280.78   74.15
1280.52   73.375
1280.27   74.15
1280.01   74.9
1279.75   73.75
1279.5   73.35
1279.24   74.125
1278.99   73.775
1278.73   75.075
1278.48   73.225
1278.22   71.675
1277.96   72.175
1277.71   72.15
1277.45   73.325
1277.19   72.575
1276.94   71.025
1276.68   72.4
1276.43   72.25
1276.17   70.775
1275.92   71.25
1275.66   72.5
1275.4   73.325
1275.15   71.3
1274.89   72.65
1274.63   71.125
1274.38   70.8
1274.12   70.225
1273.87   70.9
1273.61   70.75
1273.35   71.45
1273.1   70.825
1272.84   70.075
1272.58   71.025
1272.33   69.725
1272.07   71.15
1271.81   71.275
1271.56   70.8
1271.3   69.225
1271.04   70.5
1270.79   69.2
1270.53   69.9
1270.28   71
1270.02   69.15
1269.76   69.525
1269.51   68.175
1269.25   69.275
1268.99   69
1268.74   69.4
1268.48   69.95
1268.22   70.55
1267.97   72.175
1267.71   72.6
1267.45   71.525
1267.2   71.2
1266.94   73.5
1266.68   72.7
1266.43   72.65
1266.17   72.425
1265.91   71.575
1265.66   71.45
1265.4   72.4
1265.14   71.175
1264.89   71.6
1264.63   70.925
1264.37   71.525
1264.12   73.45
1263.86   71.35
1263.6   71.8
1263.35   71.65
1263.09   73.35
1262.83   70.675
1262.58   69.5
1262.32   70.375
1262.06   71.15
1261.81   72.775
1261.55   72.55
1261.29   71.825
1261.03   71.325
1260.78   72.125
1260.52   72.7
1260.26   71.825
1260.01   72.35
1259.75   71.75
1259.49   71.6
1259.23   71.75
1258.98   69.025
1258.72   70.525
1258.46   71.225
1258.21   70.9
1257.95   71.575
1257.69   73.375
1257.44   72.375
1257.18   72.025
1256.92   71.85
1256.66   72.15
1256.41   74.075
1256.15   72.15
1255.89   72.125
1255.63   71.4
1255.38   72.375
1255.12   72.325
1254.86   72.425
1254.61   71.75
1254.35   72.625
1254.09   72.725
1253.83   71.625
1253.58   72.175
1253.32   71.7
1253.06   70.45
1252.81   72.375
1252.55   72.325
1252.29   72.2
1252.03   74.075
1251.77   72.9
1251.52   73.15
1251.26   71.175
1251   72.1
1250.75   73.025
1250.49   71.15
1250.23   72.05
1249.97   73.9
1249.72   71.55
1249.46   71.825
1249.2   72.775
1248.94   71.8
1248.68   72.15
1248.42   72.45
1248.17   71.75
1247.91   71.95
1247.65   72.725
1247.4   73.025
1247.14   71.05
1246.88   70.725
1246.62   72.525
1246.37   69.95
1246.11   70.825
1245.85   71.575
1245.59   70.8
1245.33   70.6
1245.08   72.1
1244.82   70.9
1244.56   70
1244.3   72.025
1244.04   72.725
1243.79   69.575
1243.53   70.475
1243.27   70.125
1243.01   70.75
1242.75   70.275
1242.5   70.35
1242.24   71.275
1241.98   70.2
1241.72   70.5
1241.46   69.25
1241.21   69.975
1240.95   71.7
1240.69   71
1240.43   71.025
1240.17   69.775
1239.92   69.8
1239.66   68.85
1239.4   68.675
1239.14   68.225
1238.88   68.6
1238.62   69.25
1238.37   68.05
1238.11   70.375
1237.85   69.425
1237.59   69.275
1237.33   67.125
1237.08   67.35
1236.82   68.725
1236.56   69.4
1236.3   67.9
1236.04   67.075
1235.78   70.2
1235.52   67.8
1235.27   68.6
1235.01   68.8
1234.75   67.875
1234.49   69.05
1234.23   69.075
1233.98   68.075
1233.71   68.725
1233.46   68.85
1233.2   68.45
1232.94   67.85
1232.68   67.275
1232.42   69.1
1232.17   66.825
1231.91   68.55
1231.65   67.25
1231.39   68.525
1231.13   69.675
1230.87   67.8
1230.61   66.6
1230.36   66.625
1230.09   68.55
1229.84   65.85
1229.58   67.1
1229.32   68.325
1229.06   66.95
1228.8   67.65
1228.54   67
1228.28   67.525
1228.02   66.725
1227.77   66.175
1227.51   68.45
1227.25   67.575
1226.99   66.75
1226.73   68.175
1226.47   64.775
1226.21   66.475
1225.96   64.35
1225.7   66.8
1225.44   67
1225.18   64.725
1224.92   61.9
1224.66   56.975
1224.4   48.6
1224.14   41.75
1223.88   31.775
1223.62   24.625
1223.37   17.2
1223.11   11.15
1222.85   8.9
1222.59   5.8
1222.33   3.85
1222.07   3.175
1221.81   3
1221.55   2.175
1221.29   2.225
1221.03   1.825
1220.77   1.7
1220.51   1.25
1220.25   1.2
1220   1.375
1219.74   1.35
1219.48   1.375
1219.22   1.375
