XY
Wavenumber     
Intensity      
"Start : "1424.03
"Stop  : "1672.41
S25424o.m3d

1672.41   0.025
1672.17   0.0125
1671.94   -0.1125
1671.7   0.175
1671.47   0.1375
1671.23   0.15
1670.99   0.0875
1670.76   0.25
1670.52   0.05
1670.29   0.0375
1670.05   -1.86265e-09
1669.81   0.1375
1669.58   0.05
1669.34   0.0625
1669.1   0.1625
1668.87   -0.025
1668.63   0.075
1668.4   0
1668.16   0.3125
1667.92   0.0875
1667.69   0.1875
1667.45   0.2125
1667.21   0.1625
1666.98   0.1875
1666.74   0.225
1666.51   0.225
1666.27   0.025
1666.03   0.2625
1665.8   0.025
1665.56   0.1125
1665.33   0.1
1665.09   0.0875
1664.85   0.0375
1664.62   0.25
1664.38   0.225
1664.14   0.1125
1663.91   0.175
1663.67   0.15
1663.43   0.1375
1663.2   0.3
1662.96   0.15
1662.72   0.1625
1662.49   0.1875
1662.25   0.2125
1662.01   0.05
1661.78   0.175
1661.54   0.1875
1661.3   0.175
1661.07   0.1875
1660.83   0.1375
1660.59   0.15
1660.36   0.2375
1660.12   0.1125
1659.89   0.175
1659.65   0
1659.41   0.35
1659.17   0.3125
1658.94   0.1375
1658.7   0.2125
1658.46   0.2375
1658.23   0.3125
1657.99   0.15
1657.75   0.1875
1657.52   0.2
1657.28   0.375
1657.04   0.4125
1656.81   0.975
1656.57   1.825
1656.33   3.575
1656.1   5.3
1655.86   7.65
1655.62   9.8875
1655.39   12.7375
1655.15   14.8125
1654.91   16.55
1654.67   17.2125
1654.44   18
1654.2   18.575
1653.96   18.6625
1653.73   18.4375
1653.49   19
1653.25   18.85
1653.02   19.025
1652.78   18.6625
1652.54   19.0375
1652.3   18.85
1652.07   18.975
1651.83   19.3125
1651.59   19.175
1651.36   19.3
1651.12   18.7875
1650.88   19.125
1650.65   18.4375
1650.41   19.7125
1650.17   19.1875
1649.93   19.3125
1649.7   19.4375
1649.46   19.3125
1649.22   18.2625
1648.98   19.1125
1648.75   19.3375
1648.51   18.7125
1648.27   19.1125
1648.03   19.225
1647.8   18.6375
1647.56   18.75
1647.32   19.625
1647.08   19.025
1646.85   19.4
1646.61   18.975
1646.37   19.225
1646.14   19.375
1645.9   19.55
1645.66   19.0625
1645.42   19.5
1645.18   19
1644.95   19.425
1644.71   19.3375
1644.47   19.2125
1644.24   19.4375
1644   19.2125
1643.76   18.9625
1643.52   19.8625
1643.28   19.0875
1643.05   19.525
1642.81   19.425
1642.57   19.4125
1642.33   19.95
1642.1   19.7875
1641.86   18.825
1641.62   19.8
1641.38   19.65
1641.15   20.175
1640.91   19.5875
1640.67   19.575
1640.43   19.475
1640.19   20.025
1639.96   19.6625
1639.72   20.1125
1639.48   20.2625
1639.24   19.975
1639   20.275
1638.77   20.5625
1638.53   19.975
1638.29   19.8375
1638.05   20.5125
1637.82   20.1125
1637.58   20.425
1637.34   20.5875
1637.1   20.575
1636.87   20.2
1636.63   20.4125
1636.39   20.2375
1636.15   20.6
1635.91   20.0125
1635.68   20.5625
1635.44   20.6875
1635.2   21.3625
1634.96   21.1625
1634.72   21.175
1634.49   21.0375
1634.25   21.05
1634.01   20.525
1633.77   21.35
1633.53   21
1633.29   21.6375
1633.06   21.5875
1632.82   21.05
1632.58   20.6375
1632.34   21.225
1632.1   21.25
1631.87   21.8625
1631.63   21
1631.39   21.8375
1631.15   22.2
1630.91   21.4875
1630.67   22.025
1630.44   21.8
1630.2   22.4375
1629.96   22.15
1629.72   22.175
1629.48   21.6625
1629.24   21.925
1629   22.175
1628.77   22.125
1628.53   21.925
1628.29   21.9875
1628.05   22.5375
1627.81   22.825
1627.58   22.475
1627.34   22.7625
1627.1   23.2625
1626.86   22.65
1626.62   22.9
1626.38   23.175
1626.14   23.25
1625.91   23.4375
1625.67   23.3625
1625.43   23.175
1625.19   23.4375
1624.95   23.825
1624.71   23.6125
1624.47   24.3875
1624.23   24.5125
1624   24.4125
1623.76   24.5375
1623.52   24.0375
1623.28   24.125
1623.04   24.1375
1622.8   25.3375
1622.56   25.2625
1622.33   25.35
1622.09   25
1621.85   24.8625
1621.61   25.725
1621.37   25.0125
1621.13   25.8375
1620.89   25.6625
1620.65   25.875
1620.41   25.625
1620.18   26.35
1619.94   26.25
1619.7   26.95
1619.46   26.95
1619.22   26.6875
1618.98   27.0375
1618.74   27.375
1618.5   27.525
1618.26   28.1875
1618.03   27.7625
1617.79   27.925
1617.55   28.6375
1617.31   28.0125
1617.07   28.8375
1616.83   29.65
1616.59   29.5125
1616.35   29.2375
1616.11   29.3875
1615.88   29.475
1615.64   29.8125
1615.4   30.2875
1615.16   30.0625
1614.92   31.0625
1614.68   31.25
1614.44   31.8125
1614.2   31.1875
1613.96   31.8125
1613.72   32
1613.48   32.825
1613.24   32.125
1613   32.1125
1612.76   33.6
1612.53   34.3875
1612.29   34.6625
1612.05   34.6
1611.81   35.2625
1611.57   35.95
1611.33   36.6875
1611.09   36.0625
1610.85   37.5875
1610.61   37.45
1610.37   37.75
1610.13   38.2875
1609.89   39.6375
1609.65   41.0625
1609.41   40.725
1609.17   40.475
1608.93   41.7125
1608.69   42.275
1608.46   44.4875
1608.22   44.5875
1607.98   45.325
1607.74   45.6125
1607.5   47.0625
1607.26   48.1625
1607.02   48.1625
1606.78   49.8625
1606.54   50.6875
1606.3   51.4375
1606.06   52.45
1605.82   54.1875
1605.58   56.05
1605.34   56.125
1605.1   57.9625
1604.86   58.475
1604.62   61.2875
1604.38   63.775
1604.14   65.1125
1603.9   65.925
1603.66   67.6375
1603.42   70.075
1603.18   71.4
1602.94   74.7375
1602.7   77.0875
1602.46   78.475
1602.22   81.1875
1601.98   84.2375
1601.74   86.425
1601.5   90.9625
1601.26   93.1625
1601.02   97.4375
1600.78   100.725
1600.54   103.312
1600.3   108.225
1600.06   112.6
1599.82   114.637
1599.58   120.275
1599.34   124.412
1599.1   128.512
1598.86   132.038
1598.62   139.5
1598.38   141.425
1598.14   147.675
1597.9   150.925
1597.66   158.538
1597.42   163.575
1597.18   168.075
1596.94   175.9
1596.7   181.025
1596.46   186.712
1596.22   191.2
1595.98   197.375
1595.74   206.2
1595.5   210.988
1595.26   217.037
1595.02   222.712
1594.78   224.775
1594.54   228.425
1594.3   231.163
1594.06   237.225
1593.82   240.825
1593.58   242.012
1593.34   243.412
1593.1   248.425
1592.86   248.7
1592.62   251.437
1592.38   245.387
1592.14   246.15
1591.9   244.062
1591.66   242.925
1591.42   239.438
1591.18   236.637
1590.93   232.112
1590.69   228.012
1590.45   221.675
1590.21   214.662
1589.97   209.225
1589.73   204.625
1589.49   197.1
1589.25   188.763
1589.01   182.475
1588.77   175.712
1588.53   168.587
1588.29   163.438
1588.05   153.775
1587.81   150.6
1587.57   142.95
1587.33   138.5
1587.08   131.025
1586.84   126.163
1586.6   121.962
1586.36   118.325
1586.12   112.925
1585.88   107.713
1585.64   104.463
1585.4   100.45
1585.16   97.825
1584.92   93.9375
1584.68   91.9875
1584.44   87.7625
1584.2   85.6125
1583.95   82.175
1583.71   79.8125
1583.47   76.775
1583.23   75.4625
1582.99   73.75
1582.75   71.2625
1582.51   69.95
1582.27   67.2375
1582.03   65.425
1581.79   64.1625
1581.55   62.4375
1581.3   60.9375
1581.06   60.2
1580.82   58.125
1580.58   56.375
1580.34   55.975
1580.1   54.6875
1579.86   55.225
1579.62   51.7625
1579.38   51.425
1579.13   50.2125
1578.89   49.4375
1578.65   49.3875
1578.41   47.2625
1578.17   47.975
1577.93   46.4375
1577.69   46.025
1577.44   43.9625
1577.2   44.3625
1576.96   43.3375
1576.72   42.6625
1576.48   41.875
1576.24   41.9125
1576   40.9625
1575.76   40.075
1575.51   39.075
1575.27   38.2
1575.03   39.375
1574.79   37.3875
1574.55   37.875
1574.31   36.5375
1574.07   36.375
1573.83   36.4875
1573.58   35.9875
1573.34   35.75
1573.1   34.8625
1572.86   34.8125
1572.62   35.075
1572.38   34.525
1572.14   34.6
1571.89   33.8875
1571.65   34.3875
1571.41   33.4
1571.17   33.5125
1570.93   33.35
1570.69   32.975
1570.44   32.5
1570.2   32.725
1569.96   32.35
1569.72   32.5875
1569.48   32.825
1569.24   32.85
1568.99   31.175
1568.75   31.8375
1568.51   31.4625
1568.27   31.2625
1568.03   30.925
1567.79   31.75
1567.54   31.2875
1567.3   31.8625
1567.06   31.4875
1566.82   31.5125
1566.58   30.85
1566.33   31.575
1566.09   31.8
1565.85   31.925
1565.61   32.5125
1565.37   32.4125
1565.12   33
1564.88   32.0625
1564.64   31.175
1564.4   32.35
1564.16   32.9875
1563.92   32.2375
1563.67   32.0875
1563.43   32.9625
1563.19   32.325
1562.95   32.8625
1562.71   33.7875
1562.46   32.225
1562.22   33.15
1561.98   33.4125
1561.74   32.6125
1561.49   32.3125
1561.25   33.025
1561.01   33.4625
1560.77   34.6125
1560.52   34.175
1560.29   34.075
1560.04   34.075
1559.8   34.5375
1559.56   34.6
1559.32   34.3875
1559.07   34.6625
1558.83   33.8125
1558.59   35.1625
1558.35   33.85
1558.1   34.35
1557.86   34.2375
1557.62   34.55
1557.38   34.15
1557.13   34.1375
1556.89   34.675
1556.65   34.6375
1556.41   34.875
1556.17   34
1555.92   34.4625
1555.68   34.45
1555.44   34.2625
1555.2   34.0375
1554.95   34.6
1554.71   34.625
1554.47   34.7125
1554.22   34
1553.98   34.7
1553.74   35.5
1553.5   34.6125
1553.25   34.4
1553.01   34.8375
1552.77   34.425
1552.53   34.475
1552.28   34.0125
1552.04   33.6125
1551.8   33.725
1551.56   33.35
1551.31   33.5
1551.07   32.9375
1550.83   33.5875
1550.58   33.15
1550.34   33.1
1550.1   32.95
1549.86   33.375
1549.61   32.35
1549.37   31.9125
1549.13   31.3125
1548.88   32.125
1548.64   31.2875
1548.4   31.2125
1548.16   30.5625
1547.91   31.225
1547.67   30.375
1547.43   30.475
1547.19   30.9125
1546.94   31
1546.7   30.8
1546.46   30.525
1546.21   30.8625
1545.97   31.2875
1545.73   30.975
1545.49   31.725
1545.24   31.575
1545   32.125
1544.76   31.9375
1544.51   32.0625
1544.27   32.825
1544.03   33.75
1543.78   33.275
1543.54   34.175
1543.3   34.0125
1543.05   34.5
1542.81   34.15
1542.57   35.125
1542.33   33.775
1542.08   33.975
1541.84   34.2625
1541.6   32.75
1541.35   32.175
1541.11   31.85
1540.87   32.4625
1540.62   31.2125
1540.38   31.5
1540.14   29.55
1539.89   29.925
1539.65   29.7125
1539.4   28.175
1539.16   28.55
1538.92   27.7
1538.68   28.0625
1538.43   27.0625
1538.19   26.475
1537.94   25.95
1537.7   25.825
1537.46   25.0625
1537.21   24.7625
1536.97   24.8625
1536.73   24.3
1536.48   24.675
1536.24   23.75
1536   24.55
1535.75   23.6375
1535.51   23.7875
1535.27   22.725
1535.02   23.4125
1534.78   23.4375
1534.54   22.9875
1534.29   23.05
1534.05   22.475
1533.8   23
1533.56   22.2125
1533.32   22.8625
1533.07   21.9875
1532.83   22.3
1532.59   22.4
1532.34   21.85
1532.1   22.025
1531.85   22.1625
1531.61   21.7625
1531.37   22.4125
1531.12   22.9625
1530.88   21.5
1530.64   21.475
1530.39   21.55
1530.15   21.6625
1529.9   21.5375
1529.66   21.5125
1529.42   21.725
1529.17   21.35
1528.93   21.3125
1528.69   21.325
1528.44   21.325
1528.2   21.675
1527.95   21.425
1527.71   21.2875
1527.46   21.075
1527.22   21.1125
1526.98   21.1875
1526.73   20.9875
1526.49   21.5
1526.25   21.3875
1526   21.275
1525.76   20.6375
1525.51   21.275
1525.27   20.5625
1525.02   21.1125
1524.78   20.875
1524.54   20.4875
1524.29   20.45
1524.05   20.7625
1523.8   20.9625
1523.56   21.2625
1523.32   20.7375
1523.07   20.925
1522.83   21.075
1522.58   19.825
1522.34   21.275
1522.09   20.55
1521.85   19.8625
1521.6   20.45
1521.36   20.2
1521.12   20.2875
1520.87   21.1875
1520.63   19.7
1520.38   20.3875
1520.14   20.0125
1519.89   20.6625
1519.65   19.875
1519.41   20.2375
1519.16   19.5875
1518.92   20.0625
1518.67   20.2875
1518.43   19.775
1518.18   20.15
1517.94   19.9375
1517.7   19.8625
1517.45   19.075
1517.2   20.1875
1516.96   19.75
1516.72   18.9625
1516.47   19.7125
1516.23   19.525
1515.98   19.45
1515.74   20.05
1515.49   19.3
1515.25   19.825
1515   19.1
1514.76   18.775
1514.51   19.725
1514.27   19.325
1514.03   18.7875
1513.78   18.525
1513.54   19.1
1513.29   19.175
1513.04   19.075
1512.8   19.05
1512.56   19.1
1512.31   18.975
1512.07   18.2875
1511.82   18.2125
1511.58   19.575
1511.33   18.8125
1511.09   19.425
1510.84   19.1875
1510.6   18.9
1510.35   19.4875
1510.11   18.8
1509.86   19.55
1509.62   18.95
1509.37   19.1125
1509.13   19.1125
1508.88   19.5875
1508.64   19.0625
1508.39   18.3375
1508.15   19.05
1507.9   18.775
1507.66   18.6625
1507.41   18.6875
1507.17   19.2875
1506.92   18.3875
1506.68   19.0625
1506.43   18.9
1506.19   18.675
1505.94   18.425
1505.69   18.5375
1505.45   19.025
1505.21   18.3625
1504.96   18.9625
1504.71   19.1875
1504.47   18.6875
1504.22   18.25
1503.98   19.15
1503.73   18.6875
1503.49   19.0125
1503.24   18.4375
1503   18.5875
1502.75   18.075
1502.51   18.2
1502.26   18.475
1502.02   18.125
1501.77   18.5125
1501.53   18.5625
1501.28   18.55
1501.03   18.2375
1500.79   18.5875
1500.54   18.725
1500.3   18.5875
1500.05   17.925
1499.81   18.6
1499.56   18.575
1499.31   18.625
1499.07   18.7875
1498.82   18.5375
1498.58   18.5375
1498.33   18.6875
1498.09   18.3125
1497.84   18.65
1497.6   18.4625
1497.35   17.5125
1497.1   18.3125
1496.86   18.9
1496.61   17.8
1496.37   18.2625
1496.12   18.1375
1495.88   18.2375
1495.63   18.3625
1495.38   17.875
1495.14   18.0875
1494.89   18.325
1494.65   17.9875
1494.4   18.2625
1494.15   18.5125
1493.91   18.1875
1493.66   18.7125
1493.42   18.3375
1493.17   18.1125
1492.93   18.5
1492.68   17.6125
1492.43   18.875
1492.19   18.2
1491.94   18.675
1491.7   18.0875
1491.45   18.1125
1491.2   18.45
1490.96   18.5125
1490.71   18.025
1490.47   18.125
1490.22   18.45
1489.97   17.875
1489.73   17.575
1489.48   18.525
1489.24   17.4375
1488.99   18.075
1488.74   18.3125
1488.5   18.725
1488.25   17.9
1488   18.2125
1487.76   18.1625
1487.51   18.1125
1487.26   18.1875
1487.02   18.0375
1486.77   18.1875
1486.53   17.9
1486.28   18.15
1486.03   17.875
1485.79   17.9875
1485.54   17.65
1485.3   17.9625
1485.05   18.5875
1484.8   18.0375
1484.56   18.0625
1484.31   17.3
1484.06   18.0375
1483.82   18.4375
1483.57   18.025
1483.32   17.525
1483.08   18.6625
1482.83   18
1482.59   17.8625
1482.34   18.1125
1482.09   18.15
1481.85   17.9875
1481.6   18.4
1481.35   18.075
1481.11   17.55
1480.86   17.7875
1480.61   17.9875
1480.37   17.775
1480.12   18.0875
1479.87   17.5
1479.63   17.875
1479.38   17.975
1479.13   17.6
1478.89   17.925
1478.64   18.0125
1478.39   17.8125
1478.15   17.4625
1477.9   17.8375
1477.65   17.9625
1477.41   17.7125
1477.16   17.85
1476.91   17.45
1476.67   17.9375
1476.42   17.7375
1476.17   17.5625
1475.92   17.6375
1475.68   17.6
1475.43   17.75
1475.18   18.2125
1474.94   17.1125
1474.69   17.675
1474.44   17.7875
1474.2   18.0125
1473.95   17.2875
1473.7   17.55
1473.46   17.075
1473.21   17.1125
1472.96   17.7
1472.71   17.0875
1472.47   17.525
1472.22   16.8875
1471.97   16.5375
1471.73   17.2
1471.48   16.9125
1471.23   16.9875
1470.98   17.3875
1470.74   17.85
1470.49   17.475
1470.24   17.775
1470   17.85
1469.75   17.4375
1469.5   17.7125
1469.25   17.425
1469.01   18.25
1468.76   17.4125
1468.51   17.1625
1468.27   17.0625
1468.02   17.4
1467.77   17.8
1467.52   17.575
1467.28   17.6125
1467.03   17.525
1466.78   17.35
1466.53   17.975
1466.29   17.9875
1466.04   17.7375
1465.79   17.8
1465.54   17.8625
1465.3   18.175
1465.05   18.0375
1464.8   18.1875
1464.55   17.2125
1464.31   17.5875
1464.06   17.6
1463.81   17.8
1463.56   17.8625
1463.32   17.7125
1463.07   17.9125
1462.82   17.7875
1462.58   18
1462.33   17.8
1462.08   17.9875
1461.83   17.6625
1461.58   17.725
1461.34   18.3125
1461.09   17.575
1460.84   17.6875
1460.59   18.2375
1460.34   17.8625
1460.1   17.9375
1459.85   17.7125
1459.6   18.2125
1459.35   18.075
1459.11   17.525
1458.86   17.5
1458.61   17.9
1458.36   17.7625
1458.11   17.8625
1457.87   17.8625
1457.62   17.5375
1457.37   17.5125
1457.12   17.5375
1456.88   18.35
1456.63   18.025
1456.38   18.175
1456.13   17.5375
1455.88   17.9125
1455.64   17.75
1455.39   18.0625
1455.14   17.9375
1454.89   18.55
1454.64   17.8125
1454.4   17.75
1454.15   18.1125
1453.9   17.5125
1453.65   18.225
1453.4   17.45
1453.16   18.1
1452.91   17.875
1452.66   17.575
1452.41   17.675
1452.16   17.9875
1451.91   17.9875
1451.67   18.275
1451.42   17.3375
1451.17   18.0375
1450.92   17.7125
1450.67   17.6
1450.43   17.4375
1450.18   17.6875
1449.93   17.6375
1449.68   17.65
1449.43   17.7125
1449.18   17.6
1448.93   17.1625
1448.69   17.7125
1448.44   16.85
1448.19   17.425
1447.94   17.3125
1447.69   17.45
1447.45   17.3
1447.2   17.8625
1446.95   17.0125
1446.7   17.125
1446.45   17.4125
1446.2   17.1875
1445.95   17.375
1445.71   17.75
1445.46   17.5125
1445.21   16.7
1444.96   17.225
1444.71   17.6375
1444.46   17.025
1444.21   17.8125
1443.97   17.0375
1443.72   17.5875
1443.47   17.575
1443.22   16.925
1442.97   17.075
1442.72   17.3875
1442.47   17.3
1442.23   17.2625
1441.98   17.375
1441.73   17.35
1441.48   17
1441.23   17.1875
1440.98   17.5875
1440.73   17.6125
1440.48   17.1375
1440.23   17.7875
1439.99   16.725
1439.74   17.05
1439.49   16.4875
1439.24   16.775
1438.99   17.475
1438.74   17.125
1438.49   16.775
1438.24   18.05
1438   17.0875
1437.75   17.175
1437.5   17.4625
1437.25   16.7875
1437   17.2
1436.75   17.125
1436.5   17.45
1436.25   17.5
1436   17.575
1435.75   16.7375
1435.5   17.4875
1435.25   17.4625
1435.01   16.95
1434.76   16.2625
1434.51   17.125
1434.26   16.6875
1434.01   16.9875
1433.76   16.6875
1433.51   17.6375
1433.26   17.1375
1433.01   16.8375
1432.76   17.0875
1432.51   16.7125
1432.26   16.5875
1432.02   16.4125
1431.77   17.0625
1431.52   17.575
1431.27   16.575
1431.02   16.975
1430.77   16.4625
1430.52   16.3875
1430.27   16.3875
1430.02   16.775
1429.77   16.925
1429.52   15.9125
1429.27   14.775
1429.02   14.375
1428.77   11.8875
1428.52   10.1625
1428.27   8.2375
1428.02   6.275
1427.78   4.7375
1427.53   3.5125
1427.28   2.5875
1427.03   1.725
1426.78   1.4
1426.53   1.1375
1426.28   1.05
1426.03   0.6375
1425.78   0.75
1425.53   0.525
1425.28   0.475
1425.03   0.5375
1424.78   0.6
1424.53   0.45
1424.28   0.4875
1424.03   0.4875
