XY
Wavenumber     
Intensity      
"Start : "194.194
"Stop  : "501.003
S25424b.m3d

501.003   0.325
500.711   -0.125
500.421   0.175
500.13   0.075
499.838   0.3
499.545   0.425
499.255   0.4
498.964   0.275
498.674   0.25
498.382   0.4
498.09   0.325
497.798   0.35
497.508   0.325
497.216   0.35
496.924   -0.025
496.633   0.475
496.342   0.375
496.05   0.325
495.758   0.325
495.468   0.475
495.176   0.425
494.884   0.05
494.592   0.4
494.301   0.225
494.01   0.075
493.719   0.45
493.425   0.325
493.135   0.1
492.844   0.45
492.551   0.525
492.259   0.425
491.968   0.25
491.677   0.65
491.384   0.325
491.092   0.225
490.801   0.1
490.509   0.425
490.216   0.4
489.925   0.25
489.634   0.3
489.343   0.3
489.049   0.425
488.758   0.65
488.467   0.6
488.173   0.4
487.882   0.3
487.591   0.475
487.299   1.075
487.006   1.225
486.714   1.95
486.422   4.775
486.129   9.2
485.838   14.375
485.547   21.325
485.254   28.15
484.961   36.125
484.67   41.3
484.378   44.925
484.085   48.6
483.794   50.1
483.501   52.125
483.208   52.55
482.917   52.45
482.624   53.35
482.331   52.625
482.04   53.325
481.747   53.95
481.456   54.875
481.163   53.5
480.87   54.375
480.578   54.175
480.286   53.25
479.993   55.325
479.7   53.65
479.409   54.1
479.116   54.825
478.823   54.925
478.531   55.425
478.237   55.35
477.945   54.675
477.653   54.475
477.36   56.225
477.068   54.15
476.776   55.025
476.484   54.8
476.191   54.925
475.898   56.125
475.604   55.05
475.312   56.25
475.02   55.625
474.727   55.9
474.436   55.7
474.142   56.15
473.849   57.2
473.556   55.525
473.263   56.35
472.972   55.45
472.679   55.85
472.385   56.15
472.093   55.225
471.799   55.85
471.508   55.625
471.212   57.4
470.921   55.775
470.629   56.2
470.334   57.025
470.042   56.875
469.747   55.625
469.455   57.375
469.163   55.025
468.87   55.55
468.577   57.125
468.283   56.375
467.99   56.325
467.696   55.625
467.403   56.4
467.112   56.575
466.818   56.5
466.525   56.1
466.231   56.675
465.938   56.875
465.645   55.2
465.351   56.575
465.06   57.075
464.766   57.075
464.473   56.75
464.181   56.725
463.885   56.425
463.594   55.7
463.298   56.9
463.007   55.35
462.712   56.725
462.419   55.7
462.126   56.575
461.832   56.25
461.538   57.025
461.244   56
460.951   57.05
460.658   55.85
460.365   56.375
460.07   56.35
459.778   55.425
459.483   55.625
459.19   57.125
458.896   55.975
458.604   56.275
458.311   54.95
458.017   55.525
457.723   55.1
457.429   56.3
457.134   56.475
456.841   56.8
456.547   56.825
456.253   57.15
455.961   56.05
455.665   57.05
455.372   56.975
455.078   57.15
454.784   55.05
454.49   56.35
454.197   56.775
453.902   56.425
453.609   56.925
453.314   57.3
453.021   57.1
452.727   56.775
452.433   56.575
452.14   56.35
451.847   56.025
451.552   57.25
451.259   56.85
450.963   56.675
450.669   56.65
450.375   57.4
450.081   56.6
449.786   55.75
449.492   55.275
449.198   55.975
448.903   56.75
448.611   55.575
448.314   54.475
448.022   55.075
447.728   55.525
447.434   56.5
447.139   53.7
446.846   55.45
446.55   56.825
446.256   54.525
445.962   54.3
445.667   54.2
445.373   54.175
445.077   55.025
444.784   53.425
444.489   55.925
444.194   54.775
443.9   54.05
443.607   54.25
443.312   53.875
443.018   56.125
442.724   53.175
442.427   54.5
442.135   55
441.839   54.925
441.545   54.65
441.25   53.725
440.956   54.9
440.661   55.4
440.365   55.25
440.071   53.925
439.776   53.7
439.481   55.1
439.188   55.95
438.893   54.775
438.598   54.925
438.303   54.375
438.008   54.85
437.713   55.325
437.419   56.55
437.124   57.05
436.828   55.525
436.533   55.4
436.238   55.55
435.943   55.675
435.648   57.075
435.354   56.25
435.061   55.5
434.764   55.15
434.468   56.675
434.175   56.625
433.879   57.425
433.583   57.45
433.289   57.525
432.993   59.275
432.698   57.325
432.403   58.3
432.107   58.175
431.812   58.775
431.518   57.8
431.223   56.325
430.928   58.425
430.632   56.525
430.337   57.975
430.042   55.5
429.746   57.675
429.451   57.625
429.156   57.325
428.86   57.7
428.565   55.125
428.271   57.05
427.975   55.325
427.679   56.125
427.384   55.775
427.089   54.225
426.794   56.075
426.498   54.25
426.201   56.45
425.907   54.725
425.611   56.275
425.315   55.775
425.021   55.05
424.725   57.325
424.428   56.675
424.134   57.65
423.839   56.525
423.541   56.625
423.246   56.775
422.952   57.85
422.654   57.4
422.359   58.675
422.063   58.575
421.768   56.425
421.473   57.175
421.177   56.575
420.881   57.8
420.585   56.05
420.289   57.25
419.993   56.1
419.697   57.275
419.401   57.35
419.105   57.2
418.81   56.65
418.515   55.6
418.219   55.25
417.923   56.825
417.625   56.025
417.329   55.025
417.034   55.275
416.737   56.4
416.441   55.875
416.146   56.325
415.85   56
415.554   55.875
415.257   55.975
414.961   55.65
414.666   55.225
414.369   56.575
414.073   55.475
413.778   56.275
413.48   57.275
413.184   57.3
412.888   55.925
412.593   57.025
412.296   56.5
411.999   56.25
411.703   55.625
411.407   57.45
411.11   57.075
410.812   57.575
410.517   56.7
410.223   56.425
409.925   56.9
409.628   55.6
409.332   56.775
409.036   57
408.739   55.6
408.442   56.225
408.146   55.9
407.85   57.5
407.554   58.575
407.256   59.05
406.959   57.875
406.663   59.225
406.366   58.725
406.07   58.7
405.773   58.025
405.478   60.1
405.181   60.675
404.885   61.5
404.587   59.775
404.289   61.875
403.992   60.725
403.697   60.475
403.4   61.15
403.104   61.6
402.806   59.575
402.508   59.65
402.211   60.55
401.916   59.825
401.619   58.425
401.321   59.1
401.024   57.3
400.729   58.575
400.433   59.475
400.135   58.55
399.837   58.6
399.54   56.775
399.243   57.65
398.946   57.6
398.649   56.8
398.353   58.075
398.055   56.65
397.757   59.575
397.461   56.775
397.163   58.5
396.867   57.425
396.57   56.65
396.271   57.975
395.974   57.9
395.677   57.15
395.381   57
395.083   57.475
394.787   56.425
394.489   59.275
394.19   57.25
393.894   58.2
393.596   57.625
393.3   59.05
393.003   58.125
392.705   56.55
392.407   57.375
392.109   59.6
391.812   57.425
391.515   60.25
391.216   58.025
390.919   59.575
390.622   59.725
390.325   59.65
390.027   59.525
389.729   60.775
389.432   59.625
389.134   59.7
388.836   61.475
388.538   61.825
388.241   62.025
387.945   62.6
387.647   61.825
387.349   63.425
387.051   61.55
386.753   62.05
386.454   62.975
386.156   62.45
385.858   63.6
385.561   63.425
385.262   62.775
384.967   64.75
384.67   63.525
384.371   64.275
384.073   62.35
383.775   63.575
383.478   62.125
383.178   61.55
382.88   64.15
382.582   61.975
382.283   62.35
381.985   62.625
381.688   62.2
381.391   64
381.093   62.6
380.796   62.2
380.498   62.425
380.198   62.425
379.9   63.4
379.603   64.625
379.305   63.6
379.006   63.575
378.707   64.275
378.409   65.05
378.11   64.925
377.812   66.65
377.514   67.425
377.216   69.65
376.917   71.325
376.618   75.975
376.32   77.725
376.022   81.375
375.726   82.825
375.426   85.425
375.128   84.75
374.829   83.7
374.531   78.4
374.231   78.55
373.934   76.2
373.636   73.025
373.337   72.025
373.038   70.9
372.739   67.875
372.441   66.35
372.144   63.225
371.846   61.125
371.546   60.45
371.248   61.025
370.949   58.725
370.648   59.975
370.352   56.85
370.053   59.1
369.755   57.45
369.455   58.575
369.155   59.075
368.856   58.375
368.558   56.65
368.259   56.725
367.962   58.525
367.661   56.575
367.362   57.25
367.065   58.275
366.766   56.8
366.466   58.9
366.167   58.425
365.869   57.625
365.57   58.325
365.271   56.95
364.972   58.775
364.671   58.1
364.372   56.775
364.074   59.15
363.775   58.375
363.476   58.35
363.177   60.55
362.878   58
362.579   58.725
362.279   59.55
361.98   59.85
361.682   60.475
361.382   58.875
361.083   57.675
360.785   58.175
360.486   59.075
360.187   58.4
359.886   57.65
359.585   57.05
359.287   58.7
358.988   59
358.688   57.025
358.389   58
358.09   56.775
357.791   57.425
357.491   58.175
357.192   58.3
356.893   56.6
356.593   57.75
356.294   59.45
355.995   57.9
355.694   57.575
355.395   57.4
355.096   58.125
354.795   59.375
354.496   58.6
354.196   59.4
353.896   60.1
353.598   59.5
353.299   59.35
352.999   59.35
352.699   59.35
352.398   59.675
352.099   59.325
351.799   59.4
351.498   58.825
351.199   59.95
350.9   58.025
350.601   59.325
350.301   58.45
350   59.55
349.701   57.675
349.399   57.7
349.101   60.475
348.8   59.05
348.501   60.125
348.201   58.6
347.902   58.975
347.602   59.3
347.299   59.8
347   60
346.7   59.275
346.401   60.3
346.101   59.375
345.802   59.675
345.5   61.2
345.2   61.05
344.901   59.375
344.6   60.775
344.3   59.95
344   61.2
343.7   60.85
343.399   60.175
343.1   61.15
342.798   60.975
342.499   60.05
342.198   60.875
341.898   61.55
341.597   61.925
341.297   62.475
340.996   63.1
340.696   61.675
340.396   63.325
340.097   63.9
339.797   63.175
339.494   62.325
339.193   64.45
338.894   64.5
338.594   64.425
338.292   63.775
337.992   65.9
337.69   65.45
337.391   66.75
337.091   67.675
336.79   68.075
336.487   67.5
336.188   65.825
335.888   67.425
335.588   67.675
335.287   66.75
334.986   65.45
334.685   67.4
334.385   67.6
334.085   66.775
333.784   67.525
333.482   69
333.181   69.45
332.881   68.875
332.581   68.675
332.278   67.45
331.979   70.325
331.677   69.325
331.377   71.95
331.076   70.6
330.774   69.95
330.473   70.2
330.173   69.825
329.87   69.3
329.57   69.375
329.268   69.725
328.968   70.65
328.668   70.95
328.365   71.825
328.064   72.6
327.764   71.05
327.463   72.275
327.163   71.125
326.859   73.475
326.56   72.9
326.258   72.325
325.957   74.8
325.654   72.9
325.354   74.725
325.055   74.525
324.752   74.15
324.449   73.725
324.149   74.6
323.847   76.175
323.545   76.325
323.245   75.85
322.943   75.975
322.644   76.55
322.34   76.775
322.039   79.475
321.738   78.05
321.436   80.45
321.134   79.75
320.834   79.975
320.533   78.375
320.229   79.5
319.928   79.975
319.627   79.2
319.324   81.2
319.023   82.05
318.723   82.325
318.42   83.8
318.118   83.65
317.817   82.65
317.516   82.75
317.213   85.475
316.912   85.275
316.61   86.075
316.307   87.275
316.006   88.55
315.706   89.15
315.401   87.3
315.102   88.25
314.799   89.45
314.498   92.025
314.195   90.3
313.895   90.55
313.592   92.825
313.29   94.7
312.988   95.95
312.684   94.05
312.383   98.725
312.082   96.125
311.778   97.975
311.478   98.725
311.176   99.825
310.872   101.8
310.571   101.275
310.271   102.5
309.967   102.4
309.665   104
309.363   105.775
309.06   105.725
308.759   108.825
308.455   106.175
308.153   111.475
307.852   111.175
307.55   115.7
307.246   114.8
306.945   115.55
306.641   120.925
306.34   125.925
306.038   126.55
305.733   132.5
305.433   133.75
305.131   135.625
304.827   135.775
304.526   137.075
304.224   133.95
303.92   138.35
303.619   137.5
303.314   143.05
303.014   150.5
302.71   151.925
302.408   162.275
302.104   172.05
301.801   184.2
301.5   197.025
301.198   217.5
300.895   243.575
300.591   276.575
300.289   323.425
299.986   381.3
299.685   454.425
299.381   533.075
299.078   613.45
298.775   669.75
298.474   696.55
298.169   698.475
297.867   665.625
297.562   632.475
297.261   581.75
296.959   528.1
296.655   457.7
296.354   392.4
296.049   324.475
295.746   271.575
295.441   232.6
295.141   204.175
294.839   184.925
294.534   168.375
294.232   159.525
293.928   152.575
293.625   148.15
293.32   143.1
293.02   142.425
292.717   139.975
292.413   138.65
292.111   138.275
291.807   137.975
291.504   139.175
291.199   141.75
290.897   141.85
290.593   143.55
290.291   145.45
289.986   151.775
289.685   153.25
289.381   156.925
289.076   162.275
288.775   170.5
288.47   172.85
288.168   182.575
287.863   190.675
287.56   200.85
287.257   215.25
286.952   229.75
286.648   246.5
286.347   265.35
286.042   290.475
285.739   320.5
285.435   347.5
285.133   374.75
284.828   402.3
284.525   431.85
284.223   449.925
283.918   461.775
283.613   470.75
283.312   472.1
283.006   465.2
282.704   448.5
282.398   428.575
282.096   395.175
281.79   366.95
281.488   335.425
281.184   311.425
280.88   282.975
280.576   258.675
280.274   237.45
279.969   220.9
279.666   201.375
279.36   187.125
279.057   175.05
278.753   163.75
278.449   149.075
278.146   143.85
277.841   135.925
277.538   128.075
277.232   122.525
276.929   118.775
276.624   115.85
276.32   111.15
276.016   107.35
275.714   107.375
275.408   105.1
275.104   103.025
274.801   101.15
274.495   100.725
274.191   98.625
273.886   98.325
273.584   98.225
273.278   94.525
272.975   96.275
272.67   95.775
272.366   93.35
272.062   94.475
271.757   93.95
271.454   95.15
271.148   95.35
270.844   94.2
270.54   97.125
270.236   94.525
269.932   93.55
269.626   96.4
269.323   97.15
269.018   97.25
268.713   99.025
268.409   101.2
268.104   104.35
267.799   104.425
267.494   106.4
267.191   112.375
266.886   113.225
266.58   118.775
266.277   120
265.972   126.9
265.667   132.7
265.363   137.575
265.057   142.275
264.753   146.6
264.447   152.625
264.144   154.4
263.839   156.2
263.532   153.475
263.229   151.575
262.924   146.325
262.619   142.625
262.315   134.325
262.009   127.95
261.704   123.15
261.399   114.8
261.093   107.35
260.79   106.75
260.484   103.05
260.181   99.675
259.875   96.175
259.569   94.55
259.263   92.8
258.96   90.7
258.654   90.775
258.349   88.9
258.044   87.25
257.738   87.15
257.434   88.975
257.128   86.4
256.822   86.25
256.52   87
256.213   86.45
255.906   86.575
255.602   86.325
255.297   86.525
254.991   85.925
254.686   85.95
254.382   86.725
254.075   86.75
253.771   89.175
253.465   88.45
253.158   89.175
252.854   90.85
252.549   91.15
252.242   91.15
251.938   88.725
251.633   88.125
251.326   86.375
251.021   86.85
250.717   85.9
250.41   83.35
250.104   81.65
249.799   80.075
249.492   79.225
249.188   77.025
248.882   77.15
248.576   73.725
248.27   75.025
247.965   73.925
247.659   73.3
247.353   72.025
247.046   72.275
246.743   71.675
246.437   72.5
246.13   72.025
245.824   71.625
245.52   72.05
245.213   72.25
244.907   71.45
244.602   74
244.295   70.825
243.988   70.3
243.681   72.3
243.378   70.775
243.07   70.9
242.764   70.4
242.459   70.675
242.153   68.725
241.847   68.75
241.54   68.65
241.236   68.45
240.93   69.95
240.622   68.95
240.316   67.325
240.01   68.35
239.705   69.525
239.397   69.575
239.092   69.175
238.786   67.3
238.479   67.875
238.172   68
237.865   68.425
237.561   67.5
237.253   66.3
236.947   66.95
236.641   67.225
236.335   65.075
236.029   68.725
235.723   67.125
235.415   67.55
235.107   67.75
234.804   67.2
234.497   66.8
234.189   67.025
233.883   67
233.576   67.65
233.27   66.65
232.964   68.3
232.657   68.375
232.351   67.225
232.044   68.7
231.737   68.8
231.43   67.625
231.123   68.225
230.815   68.925
230.511   67.65
230.204   68.775
229.896   69.925
229.59   67.6
229.282   70.125
228.975   70.975
228.67   69.4
228.363   69.675
228.056   71.5
227.748   71.375
227.442   69.775
227.137   68.9
226.829   69.025
226.521   67.875
226.214   68.55
225.908   67.45
225.601   66.475
225.293   67.15
224.987   67.825
224.68   67.45
224.372   67.75
224.064   67.35
223.757   66.85
223.45   68.375
223.144   66.6
222.836   68.675
222.528   68.625
222.222   67.35
221.914   68.575
221.607   67.425
221.302   67.25
220.993   68.225
220.686   67.175
220.378   67.6
220.07   67.925
219.763   68
219.457   66.975
219.149   68.325
218.843   68.65
218.535   68.2
218.227   69.025
217.919   67.525
217.611   67.825
217.306   68.15
216.998   68.05
216.689   68.4
216.383   69.25
216.075   67.925
215.768   70.25
215.459   68.525
215.151   68.65
214.843   68.025
214.535   68.2
214.23   68.925
213.923   67.15
213.614   67.775
213.307   67.95
212.998   67.45
212.69   68.9
212.383   68.825
212.074   68
211.767   68.875
211.458   70.025
211.151   69.55
210.843   69.775
210.535   69.6
210.227   71
209.921   69.325
209.612   70.625
209.305   73.125
208.996   71.35
208.688   70.925
208.38   72.9
208.071   71.8
207.763   70.2
207.456   72.5
207.147   72.1
206.84   73.05
206.53   73.95
206.223   73.3
205.917   73.825
205.608   73.9
205.3   74.65
204.991   76.225
204.684   75.65
204.375   77.7
204.066   78.3
203.758   78.825
203.449   78.525
203.142   79.325
202.833   81.825
202.524   82.7
202.216   82.025
201.907   83.75
201.6   85.025
201.29   87.6
200.981   86.925
200.676   88.65
200.367   87.2
200.059   84.625
199.751   79.4
199.442   69.45
199.133   58.475
198.824   45.95
198.516   34.575
198.206   24.65
197.897   16.525
197.59   10.975
197.281   7.9
196.972   5.55
196.663   4.45
196.355   3.5
196.047   2.225
195.737   2.35
195.43   2.175
195.12   2.15
194.812   1.825
194.503   1.85
194.194   1.85
